L I	L III	L II(Calc.)
-0.0439453	-0.0604248	-0.10437
-0.0411987	-0.0619507	-0.103149
-0.0405884	-0.0622559	-0.102844
-0.0408936	-0.0616455	-0.102539
-0.0408936	-0.0604248	-0.101318
-0.0405884	-0.0585938	-0.0991821
-0.0405884	-0.0579834	-0.0985718
-0.0408936	-0.0576782	-0.0985718
-0.0418091	-0.0570679	-0.098877
-0.0430298	-0.0561523	-0.0991821
-0.0439453	-0.0549316	-0.098877
-0.0439453	-0.0537109	-0.0976563
-0.0436401	-0.0524902	-0.0961304
-0.0427246	-0.0509644	-0.093689
-0.0418091	-0.0494385	-0.0912476
-0.0411987	-0.0479126	-0.0891113
-0.0405884	-0.0466919	-0.0872803
-0.0405884	-0.0454712	-0.0860596
-0.0408936	-0.0439453	-0.0848389
-0.039978	-0.043335	-0.083313
-0.0393677	-0.0427246	-0.0820923
-0.0393677	-0.0421143	-0.0814819
-0.0390625	-0.0418091	-0.0808716
-0.038147	-0.0418091	-0.0799561
-0.0363159	-0.0421143	-0.0784302
-0.0341797	-0.043335	-0.0775146
-0.0326538	-0.0445557	-0.0772095
-0.0314331	-0.0463867	-0.0778198
-0.0311279	-0.0476074	-0.0787354
-0.0317383	-0.0485229	-0.0802612
-0.0335693	-0.0485229	-0.0820923
-0.0360107	-0.0482178	-0.0842285
-0.0372314	-0.0482178	-0.0854492
-0.0363159	-0.0482178	-0.0845337
-0.0341797	-0.0479126	-0.0820923
-0.0314331	-0.0466919	-0.078125
-0.0292969	-0.0445557	-0.0738525
-0.027771	-0.0418091	-0.0695801
-0.0259399	-0.0396729	-0.0656128
-0.0238037	-0.0384521	-0.0622559
-0.0219727	-0.0375366	-0.0595093
-0.0216675	-0.0366211	-0.0582886
-0.022583	-0.0360107	-0.0585938
-0.0241089	-0.0354004	-0.0595093
-0.0259399	-0.0357056	-0.0616455
-0.0280762	-0.0363159	-0.0643921
-0.0308228	-0.0363159	-0.0671387
-0.0332642	-0.0360107	-0.0692749
-0.0350952	-0.0354004	-0.0704956
-0.0360107	-0.03479	-0.0708008
-0.0357056	-0.03479	-0.0704956
-0.0354004	-0.0341797	-0.0695801
-0.0366211	-0.0326538	-0.0692749
-0.0384521	-0.0305176	-0.0689697
-0.039978	-0.0289917	-0.0689697
-0.0405884	-0.0283813	-0.0689697
-0.039978	-0.027771	-0.067749
-0.0393677	-0.0262451	-0.0656128
-0.0390625	-0.0234985	-0.062561
-0.0393677	-0.0186157	-0.0579834
-0.0402832	-0.0119019	-0.0521851
-0.0402832	-0.00427246	-0.0445557
-0.0396729	0.00366211	-0.0360107
-0.0393677	0.0119019	-0.0274658
-0.0387573	0.0204468	-0.0183105
-0.0375366	0.027771	-0.00976563
-0.0366211	0.0344849	-0.00213623
-0.0369263	0.0411987	0.00427246
-0.0372314	0.0473022	0.0100708
-0.0360107	0.0518799	0.0158691
-0.0338745	0.0564575	0.022583
-0.0311279	0.0613403	0.0302124
-0.0292969	0.0689697	0.0396729
-0.0283813	0.0799561	0.0515747
-0.027771	0.0930786	0.0653076
-0.027771	0.106506	0.0787354
-0.0283813	0.120239	0.0918579
-0.0292969	0.133972	0.104675
-0.0299072	0.145874	0.115967
-0.0292969	0.15564	0.126343
-0.0283813	0.162048	0.133667
-0.0271606	0.164185	0.137024
-0.0253296	0.161133	0.135803
-0.0238037	0.153809	0.130005
-0.0231934	0.143127	0.119934
-0.0228882	0.13092	0.108032
-0.0234985	0.118103	0.0946045
-0.0247192	0.10498	0.0802612
-0.0262451	0.0915527	0.0653076
-0.0283813	0.078125	0.0497437
-0.0305176	0.0640869	0.0335693
-0.0335693	0.0497437	0.0161743
-0.0375366	0.0360107	-0.00152588
-0.0421143	0.022583	-0.0195313
-0.045166	0.00854492	-0.0366211
-0.0463867	-0.00549316	-0.0518799
-0.0457764	-0.0195313	-0.0653076
-0.0439453	-0.0320435	-0.0759888
-0.0427246	-0.0427246	-0.0854492
-0.0427246	-0.0509644	-0.093689
-0.0418091	-0.0576782	-0.0994873
-0.0393677	-0.062561	-0.101929
-0.0363159	-0.0653076	-0.101624
-0.0338745	-0.0662231	-0.100098
-0.0320435	-0.065918	-0.0979614
-0.0302124	-0.0656128	-0.0958252
-0.0296021	-0.0662231	-0.0958252
-0.0296021	-0.0689697	-0.0985718
-0.0296021	-0.0744629	-0.104065
-0.0289917	-0.0836182	-0.11261
-0.0280762	-0.0946045	-0.122681
-0.0271606	-0.106201	-0.133362
-0.0256348	-0.118103	-0.143738
-0.0228882	-0.127869	-0.150757
-0.0195313	-0.133667	-0.153198
-0.015564	-0.133057	-0.148621
-0.00976563	-0.123291	-0.133057
-0.00183105	-0.102844	-0.104675
0.00701904	-0.0689697	-0.0619507
0.0152588	-0.0210571	-0.00579834
0.0219727	0.0408936	0.0628662
0.0265503	0.116272	0.142822
0.0299072	0.204468	0.234375
0.0332642	0.303345	0.336609
0.0384521	0.406189	0.444641
0.0460815	0.50415	0.550232
0.0561523	0.591431	0.647583
0.0680542	0.663757	0.731812
0.0805664	0.718689	0.799255
0.0930786	0.751038	0.844116
0.10437	0.755005	0.859375
0.111389	0.728455	0.839844
0.111389	0.674438	0.785828
0.102539	0.598145	0.700684
0.0848389	0.505371	0.59021
0.0604248	0.401917	0.462341
0.0320435	0.2948	0.326843
0.00213623	0.189819	0.191956
-0.0262451	0.093689	0.0674438
-0.0515747	0.0119019	-0.0396729
-0.0717163	-0.0524902	-0.124207
-0.0842285	-0.0982666	-0.182495
-0.088501	-0.127258	-0.215759
-0.0845337	-0.142517	-0.227051
-0.0741577	-0.14679	-0.220947
-0.0610352	-0.143127	-0.204163
-0.0473022	-0.133972	-0.181274
-0.03479	-0.123291	-0.158081
-0.0253296	-0.112915	-0.138245
-0.0195313	-0.105286	-0.124817
-0.0167847	-0.100098	-0.116882
-0.0164795	-0.0976563	-0.114136
-0.0177002	-0.0976563	-0.115356
-0.0192261	-0.0991821	-0.118408
-0.0204468	-0.101624	-0.12207
-0.0222778	-0.103455	-0.125732
-0.0234985	-0.105286	-0.128784
-0.0238037	-0.106506	-0.13031
-0.0241089	-0.107117	-0.131226
-0.0244141	-0.107422	-0.131836
-0.0241089	-0.108643	-0.132751
-0.0219727	-0.110779	-0.132751
-0.0183105	-0.112915	-0.131226
-0.0137329	-0.115662	-0.129395
-0.00976563	-0.118408	-0.128174
-0.00610352	-0.121155	-0.127258
-0.00335693	-0.123596	-0.126953
-0.00183105	-0.124817	-0.126648
-0.00183105	-0.124512	-0.126343
-0.00213623	-0.122986	-0.125122
-0.00427246	-0.120239	-0.124512
-0.00793457	-0.116882	-0.124817
-0.0119019	-0.113831	-0.125732
-0.0158691	-0.110779	-0.126648
-0.0204468	-0.108643	-0.129089
-0.0241089	-0.106506	-0.130615
-0.0259399	-0.105286	-0.131226
-0.0256348	-0.10437	-0.130005
-0.0247192	-0.103455	-0.128174
-0.0244141	-0.101929	-0.126343
-0.0241089	-0.100098	-0.124207
-0.0231934	-0.098877	-0.12207
-0.0222778	-0.0973511	-0.119629
-0.0210571	-0.0967407	-0.117798
-0.0195313	-0.0973511	-0.116882
-0.0177002	-0.0985718	-0.116272
-0.0167847	-0.0997925	-0.116577
-0.015564	-0.101929	-0.117493
-0.0128174	-0.104675	-0.117493
-0.00823975	-0.108643	-0.116882
-0.00305176	-0.11261	-0.115662
0.00183105	-0.115967	-0.114136
0.00579834	-0.117798	-0.112
0.00854492	-0.118103	-0.109558
0.00976563	-0.116577	-0.106812
0.0100708	-0.113525	-0.103455
0.010376	-0.110474	-0.100098
0.00946045	-0.107117	-0.0976563
0.00732422	-0.103455	-0.0961304
0.00579834	-0.100403	-0.0946045
0.00549316	-0.098877	-0.0933838
0.00549316	-0.0982666	-0.0927734
0.00640869	-0.0982666	-0.0918579
0.00823975	-0.098877	-0.0906372
0.0106812	-0.098877	-0.0881958
0.0131226	-0.0985718	-0.0854492
0.0152588	-0.0982666	-0.0830078
0.017395	-0.0985718	-0.0811768
0.0195313	-0.0985718	-0.0790405
0.0210571	-0.0985718	-0.0775146
0.022583	-0.0982666	-0.0756836
0.0241089	-0.0982666	-0.0741577
0.0253296	-0.0982666	-0.072937
0.0262451	-0.0985718	-0.0723267
0.0268555	-0.098877	-0.0720215
0.027771	-0.098877	-0.071106
0.0292969	-0.098877	-0.0695801
0.0308228	-0.0985718	-0.067749
0.0320435	-0.0985718	-0.0665283
0.0332642	-0.0994873	-0.0662231
0.0357056	-0.100708	-0.0650024
0.0393677	-0.101929	-0.062561
0.043335	-0.102539	-0.0592041
0.0463867	-0.103149	-0.0567627
0.0497437	-0.10437	-0.0546265
0.0531006	-0.107422	-0.0543213
0.055542	-0.111694	-0.0561523
0.0570679	-0.116272	-0.0592041
0.0582886	-0.120544	-0.0622559
0.057373	-0.124207	-0.0668335
0.0561523	-0.127258	-0.071106
0.055542	-0.130005	-0.0744629
0.0561523	-0.132446	-0.0762939
0.057373	-0.134583	-0.0772095
0.0598145	-0.136719	-0.0769043
0.062561	-0.138855	-0.0762939
0.065918	-0.140076	-0.0741577
0.0683594	-0.139771	-0.0714111
0.0704956	-0.138245	-0.067749
0.0714111	-0.135803	-0.0643921
0.0704956	-0.133057	-0.062561
0.0683594	-0.13031	-0.0619507
0.0665283	-0.127869	-0.0613403
0.0650024	-0.125732	-0.06073
0.0631714	-0.124207	-0.0610352
0.0613403	-0.123596	-0.0622559
0.0601196	-0.122375	-0.0622559
0.0595093	-0.120544	-0.0610352
0.0588989	-0.118103	-0.0592041
0.0582886	-0.115356	-0.0570679
0.0570679	-0.112915	-0.0558472
0.055542	-0.109863	-0.0543213
0.0518799	-0.105286	-0.0534058
0.0460815	-0.098877	-0.0527954
0.0390625	-0.0915527	-0.0524902
0.0326538	-0.0848389	-0.0521851
0.0265503	-0.078125	-0.0515747
0.0213623	-0.0717163	-0.050354
0.0167847	-0.0656128	-0.0488281
0.012207	-0.0604248	-0.0482178
0.00732422	-0.0558472	-0.0485229
0.00305176	-0.0518799	-0.0488281
-0.0012207	-0.0479126	-0.0491333
-0.00488281	-0.0442505	-0.0491333
-0.00915527	-0.0411987	-0.050354
-0.0146484	-0.038147	-0.0527954
-0.0201416	-0.0354004	-0.055542
-0.0265503	-0.0326538	-0.0592041
-0.0335693	-0.0299072	-0.0634766
-0.0390625	-0.0280762	-0.0671387
-0.0427246	-0.0268555	-0.0695801
-0.0445557	-0.0262451	-0.0708008
-0.0457764	-0.0256348	-0.0714111
-0.0466919	-0.0250244	-0.0717163
-0.0476074	-0.0247192	-0.0723267
-0.0482178	-0.0241089	-0.0723267
-0.0482178	-0.0241089	-0.0723267
-0.0469971	-0.0253296	-0.0723267
-0.0454712	-0.0268555	-0.0723267
-0.0442505	-0.0283813	-0.0726318
-0.0436401	-0.0289917	-0.0726318
-0.0439453	-0.0286865	-0.0726318
-0.0448608	-0.027771	-0.0726318
-0.0457764	-0.0268555	-0.0726318
-0.0460815	-0.0262451	-0.0723267
-0.0460815	-0.0256348	-0.0717163
-0.0460815	-0.0247192	-0.0708008
-0.0457764	-0.0238037	-0.0695801
-0.0454712	-0.0219727	-0.0674438
-0.0460815	-0.0198364	-0.065918
-0.0476074	-0.0177002	-0.0653076
-0.0494385	-0.0161743	-0.0656128
-0.0500488	-0.0158691	-0.065918
-0.0500488	-0.0164795	-0.0665283
-0.050354	-0.0170898	-0.0674438
-0.0509644	-0.0177002	-0.0686646
-0.0515747	-0.0183105	-0.0698853
-0.0509644	-0.0189209	-0.0698853
-0.0497437	-0.0195313	-0.0692749
-0.0488281	-0.0204468	-0.0692749
-0.0473022	-0.0210571	-0.0683594
-0.0460815	-0.0210571	-0.0671387
-0.0454712	-0.0204468	-0.065918
-0.0442505	-0.0198364	-0.0640869
-0.0427246	-0.0198364	-0.062561
-0.0415039	-0.0204468	-0.0619507
-0.0405884	-0.0210571	-0.0616455
-0.0393677	-0.0216675	-0.0610352
-0.0378418	-0.022583	-0.0604248
-0.0363159	-0.0231934	-0.0595093
-0.0354004	-0.0244141	-0.0598145
-0.0335693	-0.0262451	-0.0598145
-0.0308228	-0.0283813	-0.0592041
-0.0280762	-0.0296021	-0.0576782
-0.0268555	-0.0299072	-0.0567627
-0.0262451	-0.0296021	-0.0558472
-0.0259399	-0.0292969	-0.0552368
-0.0256348	-0.0289917	-0.0546265
-0.0253296	-0.0286865	-0.0540161
-0.0256348	-0.0280762	-0.0537109
-0.0271606	-0.0268555	-0.0540161
-0.0286865	-0.0253296	-0.0540161
-0.0296021	-0.0241089	-0.0537109
-0.0305176	-0.022583	-0.0531006
-0.0311279	-0.0216675	-0.0527954
-0.0317383	-0.0204468	-0.0521851
-0.0314331	-0.0186157	-0.0500488
-0.0311279	-0.0167847	-0.0479126
-0.0302124	-0.015564	-0.0457764
-0.0292969	-0.0152588	-0.0445557
-0.027771	-0.0149536	-0.0427246
-0.0265503	-0.0140381	-0.0405884
-0.0244141	-0.0131226	-0.0375366
-0.0219727	-0.0131226	-0.0350952
-0.0201416	-0.0134277	-0.0335693
-0.0192261	-0.0134277	-0.0326538
-0.0195313	-0.0128174	-0.0323486
-0.0204468	-0.012207	-0.0326538
-0.0216675	-0.0112915	-0.032959
-0.0228882	-0.0109863	-0.0338745
-0.0238037	-0.010376	-0.0341797
-0.0241089	-0.0100708	-0.0341797
-0.0241089	-0.00976563	-0.0338745
-0.0247192	-0.00946045	-0.0341797
-0.0253296	-0.0100708	-0.0354004
-0.0253296	-0.010376	-0.0357056
-0.0253296	-0.0100708	-0.0354004
-0.0250244	-0.0100708	-0.0350952
-0.0234985	-0.0112915	-0.03479
-0.0216675	-0.0131226	-0.03479
-0.0198364	-0.015564	-0.0354004
-0.0186157	-0.0180054	-0.0366211
-0.0180054	-0.0198364	-0.0378418
-0.0183105	-0.0213623	-0.0396729
-0.0195313	-0.0234985	-0.0430298
-0.0204468	-0.0259399	-0.0463867
-0.020752	-0.0289917	-0.0497437
-0.0213623	-0.0323486	-0.0537109
-0.022583	-0.03479	-0.057373
-0.0247192	-0.0363159	-0.0610352
-0.0271606	-0.0372314	-0.0643921
-0.0292969	-0.0372314	-0.0665283
-0.0305176	-0.0360107	-0.0665283
-0.0308228	-0.0332642	-0.0640869
-0.0305176	-0.0286865	-0.0592041
-0.0305176	-0.022583	-0.0531006
-0.0305176	-0.0149536	-0.0454712
-0.0305176	-0.00610352	-0.0366211
-0.0305176	0.00335693	-0.0271606
-0.0305176	0.0128174	-0.0177002
-0.0302124	0.0210571	-0.00915527
-0.0299072	0.027771	-0.00213623
-0.0289917	0.0323486	0.00335693
-0.0274658	0.0357056	0.00823975
-0.0256348	0.0390625	0.0134277
-0.0250244	0.0430298	0.0180054
-0.0253296	0.0473022	0.0219727
-0.0259399	0.0537109	0.027771
-0.0274658	0.0628662	0.0354004
-0.0292969	0.0741577	0.0448608
-0.0292969	0.0869751	0.0576782
-0.0292969	0.0994873	0.0701904
-0.0302124	0.112	0.0817871
-0.0320435	0.124512	0.0924683
-0.0338745	0.137024	0.103149
-0.03479	0.14679	0.112
-0.0341797	0.151978	0.117798
-0.0326538	0.151367	0.118713
-0.0308228	0.146179	0.115356
-0.0296021	0.137939	0.108337
-0.0296021	0.128174	0.0985718
-0.0305176	0.118103	0.0875854
-0.0326538	0.107117	0.0744629
-0.0354004	0.0949097	0.0595093
-0.038147	0.0814819	0.043335
-0.0408936	0.0668335	0.0259399
-0.0424194	0.050354	0.00793457
-0.0430298	0.032959	-0.0100708
-0.0439453	0.0161743	-0.027771
-0.0457764	-0.000305176	-0.0460815
-0.0469971	-0.0167847	-0.0637817
-0.0469971	-0.032959	-0.0799561
-0.0457764	-0.0482178	-0.0939941
-0.0442505	-0.0616455	-0.105896
-0.0439453	-0.0723267	-0.116272
-0.0445557	-0.0793457	-0.123901
-0.0454712	-0.083313	-0.128784
-0.0469971	-0.0842285	-0.131226
-0.0485229	-0.0830078	-0.131531
-0.0506592	-0.0802612	-0.13092
-0.0527954	-0.0765991	-0.129395
-0.0543213	-0.0744629	-0.128784
-0.0546265	-0.0747681	-0.129395
-0.0543213	-0.0778198	-0.132141
-0.0521851	-0.0848389	-0.137024
-0.0491333	-0.0952148	-0.144348
-0.0448608	-0.109558	-0.154419
-0.0393677	-0.126648	-0.166016
-0.03479	-0.143127	-0.177917
-0.0305176	-0.15625	-0.186768
-0.0250244	-0.163269	-0.188293
-0.0189209	-0.163269	-0.18219
-0.0128174	-0.153198	-0.166016
-0.00671387	-0.13031	-0.137024
-0.000305176	-0.0927734	-0.0930786
0.00640869	-0.0405884	-0.0341797
0.0125122	0.0262451	0.0387573
0.0183105	0.106812	0.125122
0.0231934	0.2005	0.223694
0.0280762	0.30426	0.332336
0.0350952	0.410461	0.445557
0.045166	0.509644	0.55481
0.0576782	0.596008	0.653687
0.0708008	0.667419	0.73822
0.0827026	0.72052	0.803223
0.0918579	0.750427	0.842285
0.0985718	0.751648	0.85022
0.101929	0.721741	0.823669
0.0994873	0.664368	0.763855
0.088501	0.584412	0.672913
0.0683594	0.488586	0.556946
0.0415039	0.38269	0.424194
0.0112915	0.274048	0.285339
-0.0186157	0.168762	0.150146
-0.0454712	0.0723267	0.0268555
-0.067749	-0.0109863	-0.0787354
-0.0827026	-0.0778198	-0.160522
-0.0894165	-0.126953	-0.21637
-0.0878906	-0.159302	-0.247192
-0.0787354	-0.176697	-0.255432
-0.0650024	-0.18219	-0.247192
-0.0491333	-0.178833	-0.227966
-0.0332642	-0.171509	-0.204773
-0.020752	-0.161743	-0.182495
-0.0134277	-0.151367	-0.164795
-0.0106812	-0.142517	-0.153198
-0.0128174	-0.134888	-0.147705
-0.0180054	-0.1297	-0.147705
-0.0247192	-0.126953	-0.151672
-0.0317383	-0.126648	-0.158386
-0.0372314	-0.127563	-0.164795
-0.0408936	-0.129395	-0.170288
-0.0424194	-0.13092	-0.17334
-0.0430298	-0.131836	-0.174866
-0.0427246	-0.131226	-0.17395
-0.0424194	-0.130005	-0.172424
-0.0415039	-0.128479	-0.169983
-0.0402832	-0.126648	-0.166931
-0.0402832	-0.123901	-0.164185
-0.0415039	-0.12085	-0.162354
-0.0421143	-0.119324	-0.161438
-0.0411987	-0.120239	-0.161438
-0.0396729	-0.12207	-0.161743
-0.0378418	-0.124512	-0.162354
-0.0363159	-0.126648	-0.162964
-0.0338745	-0.129089	-0.162964
-0.0311279	-0.131836	-0.162964
-0.027771	-0.134583	-0.162354
-0.0244141	-0.136414	-0.160828
-0.0213623	-0.136719	-0.158081
-0.0198364	-0.136108	-0.155945
-0.0198364	-0.134277	-0.154114
-0.020752	-0.131836	-0.152588
-0.022583	-0.129089	-0.151672
-0.0250244	-0.126343	-0.151367
-0.0271606	-0.123901	-0.151062
-0.0296021	-0.12207	-0.151672
-0.0317383	-0.12146	-0.153198
-0.032959	-0.121155	-0.154114
-0.0335693	-0.12146	-0.155029
-0.0335693	-0.121155	-0.154724
-0.0335693	-0.12085	-0.154419
-0.0335693	-0.120544	-0.154114
-0.0335693	-0.119934	-0.153503
-0.0338745	-0.118713	-0.152588
-0.0335693	-0.117798	-0.151367
-0.0311279	-0.117798	-0.148926
-0.0280762	-0.119019	-0.147095
-0.0256348	-0.120544	-0.146179
-0.0238037	-0.121765	-0.145569
-0.022583	-0.122681	-0.145264
-0.0204468	-0.124207	-0.144653
-0.0177002	-0.126038	-0.143738
-0.0149536	-0.127563	-0.142517
-0.0128174	-0.128174	-0.140991
-0.0115967	-0.128174	-0.139771
-0.0109863	-0.126648	-0.137634
-0.010376	-0.124817	-0.135193
-0.00976563	-0.122986	-0.132751
-0.0106812	-0.12146	-0.132141
-0.0115967	-0.119934	-0.131531
-0.0115967	-0.119324	-0.13092
-0.0109863	-0.119324	-0.13031
-0.0100708	-0.120239	-0.13031
-0.00823975	-0.12207	-0.13031
-0.00549316	-0.124512	-0.130005
-0.00183105	-0.126953	-0.128784
0.00183105	-0.128479	-0.126648
0.00549316	-0.129395	-0.123901
0.00915527	-0.129395	-0.120239
0.012207	-0.129089	-0.116882
0.0152588	-0.128479	-0.11322
0.0177002	-0.128174	-0.110474
0.0198364	-0.127563	-0.107727
0.0210571	-0.126953	-0.105896
0.0222778	-0.126648	-0.10437
0.0228882	-0.126648	-0.10376
0.0234985	-0.126648	-0.103149
0.0250244	-0.127563	-0.102539
0.027771	-0.129089	-0.101318
0.0311279	-0.131226	-0.100098
0.0341797	-0.132751	-0.0985718
0.0363159	-0.134277	-0.0979614
0.038147	-0.136108	-0.0979614
0.0402832	-0.137939	-0.0976563
0.0427246	-0.140381	-0.0976563
0.0448608	-0.143127	-0.0982666
0.0466919	-0.146484	-0.0997925
0.0476074	-0.149536	-0.101929
0.0482178	-0.152893	-0.104675
0.0488281	-0.15564	-0.106812
0.0494385	-0.157776	-0.108337
0.050354	-0.158691	-0.108337
0.0512695	-0.158997	-0.107727
0.0527954	-0.158997	-0.106201
0.0537109	-0.158997	-0.105286
0.0540161	-0.158081	-0.104065
0.0543213	-0.156555	-0.102234
0.0540161	-0.154114	-0.100098
0.0531006	-0.151062	-0.0979614
0.0518799	-0.148315	-0.0964355
0.050354	-0.145569	-0.0952148
0.0494385	-0.142212	-0.0927734
0.0488281	-0.13855	-0.0897217
0.0473022	-0.134277	-0.0869751
0.0445557	-0.129089	-0.0845337
0.0408936	-0.123291	-0.0823975
0.0369263	-0.117188	-0.0802612
0.0323486	-0.110168	-0.0778198
0.0280762	-0.103149	-0.0750732
0.0241089	-0.0973511	-0.0732422
0.0201416	-0.0921631	-0.0720215
0.0152588	-0.0872803	-0.0720215
0.0100708	-0.0814819	-0.0714111
0.00427246	-0.0750732	-0.0708008
-0.00244141	-0.0683594	-0.0708008
-0.00915527	-0.0619507	-0.071106
-0.0149536	-0.0567627	-0.0717163
-0.0195313	-0.0524902	-0.0720215
-0.0234985	-0.0491333	-0.0726318
-0.0271606	-0.0454712	-0.0726318
-0.0305176	-0.0421143	-0.0726318
-0.0326538	-0.0387573	-0.0714111
-0.0344849	-0.0363159	-0.0708008
-0.0357056	-0.0354004	-0.071106
-0.0366211	-0.0350952	-0.0717163
-0.0378418	-0.0350952	-0.072937
-0.0393677	-0.03479	-0.0741577
-0.0415039	-0.0335693	-0.0750732
-0.0439453	-0.0332642	-0.0772095
-0.0469971	-0.0335693	-0.0805664
-0.0497437	-0.0341797	-0.0839233
-0.0521851	-0.03479	-0.0869751
-0.0549316	-0.0354004	-0.090332
-0.0564575	-0.0363159	-0.0927734
-0.0567627	-0.038147	-0.0949097
-0.0570679	-0.0390625	-0.0961304
-0.0582886	-0.0393677	-0.0976563
-0.0598145	-0.0396729	-0.0994873
-0.0619507	-0.0393677	-0.101318
-0.062561	-0.0387573	-0.101318
-0.0622559	-0.0375366	-0.0997925
-0.0616455	-0.0354004	-0.0970459
-0.0616455	-0.0332642	-0.0949097
-0.0613403	-0.0317383	-0.0930786
-0.0610352	-0.0311279	-0.0921631
-0.06073	-0.0311279	-0.0918579
-0.0598145	-0.0314331	-0.0912476
-0.0576782	-0.0317383	-0.0894165
-0.0561523	-0.0332642	-0.0894165
-0.055542	-0.0350952	-0.0906372
-0.055542	-0.0369263	-0.0924683
-0.0558472	-0.0378418	-0.093689
-0.0561523	-0.038147	-0.0942993
-0.0561523	-0.0384521	-0.0946045
-0.0564575	-0.0387573	-0.0952148
-0.0570679	-0.038147	-0.0952148
-0.0576782	-0.0372314	-0.0949097
-0.0570679	-0.0357056	-0.0927734
-0.0558472	-0.0335693	-0.0894165
-0.0549316	-0.0311279	-0.0860596
-0.0540161	-0.0286865	-0.0827026
-0.0540161	-0.0265503	-0.0805664
-0.0549316	-0.0247192	-0.0796509
-0.055542	-0.0238037	-0.0793457
-0.0558472	-0.0238037	-0.0796509
-0.055542	-0.0238037	-0.0793457
-0.0564575	-0.0231934	-0.0796509
-0.057373	-0.0228882	-0.0802612
-0.0588989	-0.0228882	-0.0817871
-0.06073	-0.022583	-0.083313
-0.0622559	-0.0222778	-0.0845337
-0.0622559	-0.0228882	-0.085144
-0.06073	-0.0234985	-0.0842285
-0.0588989	-0.0244141	-0.083313
-0.0558472	-0.0250244	-0.0808716
-0.0515747	-0.0253296	-0.0769043
-0.0479126	-0.0250244	-0.072937
-0.0445557	-0.0234985	-0.0680542
-0.0408936	-0.022583	-0.0634766
-0.0372314	-0.0222778	-0.0595093
-0.0350952	-0.0219727	-0.0570679
-0.0344849	-0.0204468	-0.0549316
-0.0360107	-0.0177002	-0.0537109
-0.0390625	-0.0146484	-0.0537109
-0.0424194	-0.012207	-0.0546265
-0.0454712	-0.0106812	-0.0561523
-0.0491333	-0.0100708	-0.0592041
-0.0524902	-0.00946045	-0.0619507
-0.055542	-0.00915527	-0.0646973
-0.0567627	-0.00915527	-0.065918
-0.0570679	-0.00946045	-0.0665283
-0.0564575	-0.00976563	-0.0662231
-0.0552368	-0.010376	-0.0656128
-0.0540161	-0.0115967	-0.0656128
-0.0540161	-0.0125122	-0.0665283
-0.0537109	-0.0128174	-0.0665283
-0.0524902	-0.0131226	-0.0656128
-0.0515747	-0.0143433	-0.065918
-0.0518799	-0.0158691	-0.067749
-0.0518799	-0.0170898	-0.0689697
-0.0512695	-0.0180054	-0.0692749
-0.0509644	-0.0195313	-0.0704956
-0.0497437	-0.020752	-0.0704956
-0.0476074	-0.0213623	-0.0689697
-0.0457764	-0.0213623	-0.0671387
-0.0442505	-0.020752	-0.0650024
-0.0436401	-0.0198364	-0.0634766
-0.0439453	-0.0183105	-0.0622559
-0.0445557	-0.0167847	-0.0613403
-0.0460815	-0.0149536	-0.0610352
-0.0485229	-0.0131226	-0.0616455
-0.0512695	-0.0109863	-0.0622559
-0.0540161	-0.00976563	-0.0637817
-0.0558472	-0.010376	-0.0662231
-0.057373	-0.0115967	-0.0689697
-0.0585938	-0.0128174	-0.0714111
-0.0592041	-0.0146484	-0.0738525
-0.0588989	-0.0167847	-0.0756836
-0.057373	-0.0192261	-0.0765991
-0.055542	-0.0213623	-0.0769043
-0.0546265	-0.0228882	-0.0775146
-0.0543213	-0.0231934	-0.0775146
-0.0546265	-0.0231934	-0.0778198
-0.0558472	-0.022583	-0.0784302
-0.0570679	-0.0213623	-0.0784302
-0.057373	-0.0204468	-0.0778198
-0.057373	-0.0201416	-0.0775146
-0.0579834	-0.0198364	-0.0778198
-0.0582886	-0.0198364	-0.078125
-0.0579834	-0.0186157	-0.0765991
-0.0567627	-0.0164795	-0.0732422
-0.055542	-0.0137329	-0.0692749
-0.0537109	-0.0100708	-0.0637817
-0.0524902	-0.00549316	-0.0579834
-0.0518799	0.000915527	-0.0509644
-0.0518799	0.0088501	-0.0430298
-0.0518799	0.0180054	-0.0338745
-0.0515747	0.0268555	-0.0247192
-0.0500488	0.0344849	-0.015564
-0.0482178	0.0408936	-0.00732422
-0.0469971	0.0460815	-0.000915527
-0.0463867	0.0509644	0.00457764
-0.0463867	0.0558472	0.00946045
-0.0460815	0.06073	0.0146484
-0.0454712	0.0671387	0.0216675
-0.0448608	0.0753784	0.0305176
-0.045166	0.0857544	0.0405884
-0.0473022	0.0985718	0.0512695
-0.0500488	0.11261	0.062561
-0.0524902	0.127258	0.0747681
-0.0543213	0.141602	0.0872803
-0.0552368	0.154114	0.098877
-0.0552368	0.163269	0.108032
-0.0543213	0.167847	0.113525
-0.0531006	0.167847	0.114746
-0.0515747	0.16449	0.112915
-0.0485229	0.157471	0.108948
-0.0448608	0.1474	0.102539
-0.0421143	0.135193	0.0930786
-0.0408936	0.12207	0.0811768
-0.0411987	0.108948	0.067749
-0.0424194	0.0961304	0.0537109
-0.0439453	0.0827026	0.0387573
-0.0454712	0.0686646	0.0231934
-0.0466919	0.0540161	0.00732422
-0.0488281	0.0393677	-0.00946045
-0.0518799	0.0247192	-0.0271606
-0.0558472	0.010376	-0.0454712
-0.0595093	-0.00396729	-0.0634766
-0.0619507	-0.0177002	-0.0796509
-0.0634766	-0.0311279	-0.0946045
-0.0637817	-0.0436401	-0.107422
-0.0634766	-0.0543213	-0.117798
-0.0631714	-0.0619507	-0.125122
-0.062561	-0.0674438	-0.130005
-0.0619507	-0.071106	-0.133057
-0.0610352	-0.0738525	-0.134888
-0.0592041	-0.0762939	-0.135498
-0.0564575	-0.0784302	-0.134888
-0.0534058	-0.0811768	-0.134583
-0.0506592	-0.085144	-0.135803
-0.0488281	-0.0909424	-0.139771
-0.0469971	-0.0991821	-0.146179
-0.0439453	-0.110168	-0.154114
-0.039978	-0.123291	-0.163269
-0.0357056	-0.136719	-0.172424
-0.0320435	-0.14801	-0.180054
-0.0283813	-0.155029	-0.183411
-0.0228882	-0.156555	-0.179443
-0.0158691	-0.150452	-0.166321
-0.00732422	-0.134277	-0.141602
0.0012207	-0.104675	-0.103455
0.00976563	-0.0610352	-0.0512695
0.0186157	-0.00305176	0.015564
0.0271606	0.0695801	0.0967407
0.03479	0.15686	0.19165
0.0421143	0.258484	0.300598
0.0509644	0.368042	0.419006
0.0628662	0.47699	0.539856
0.0775146	0.577698	0.655212
0.0924683	0.666504	0.758972
0.106201	0.737305	0.843506
0.118103	0.783386	0.901489
0.127258	0.798645	0.925903
0.130615	0.78125	0.911865
0.126038	0.732422	0.858459
0.113831	0.653992	0.767822
0.0942993	0.552063	0.646362
0.0671387	0.434875	0.502014
0.0357056	0.31311	0.348816
0.00335693	0.194397	0.197754
-0.0274658	0.0866699	0.0592041
-0.0540161	-0.00396729	-0.0579834
-0.0741577	-0.0741577	-0.148315
-0.0854492	-0.122375	-0.207825
-0.0878906	-0.149536	-0.237427
-0.0827026	-0.158997	-0.241699
-0.0726318	-0.155334	-0.227966
-0.0598145	-0.143127	-0.202942
-0.0457764	-0.127869	-0.173645
-0.0335693	-0.11322	-0.14679
-0.0247192	-0.101013	-0.125732
-0.0201416	-0.0933838	-0.113525
-0.0180054	-0.090332	-0.108337
-0.0180054	-0.0915527	-0.109558
-0.0192261	-0.0958252	-0.115051
-0.0210571	-0.101624	-0.122681
-0.0228882	-0.107117	-0.130005
-0.0238037	-0.111389	-0.135193
-0.0241089	-0.114441	-0.13855
-0.0231934	-0.116272	-0.139465
-0.020752	-0.117493	-0.138245
-0.0192261	-0.117798	-0.137024
-0.0189209	-0.116882	-0.135803
-0.0186157	-0.116272	-0.134888
-0.0180054	-0.115967	-0.133972
-0.0170898	-0.115967	-0.133057
-0.0161743	-0.116577	-0.132751
-0.0146484	-0.117798	-0.132446
-0.0134277	-0.119019	-0.132446
-0.0134277	-0.119019	-0.132446
-0.0134277	-0.118408	-0.131836
-0.0131226	-0.117493	-0.130615
-0.012207	-0.115662	-0.127869
-0.0106812	-0.114136	-0.124817
-0.00793457	-0.112915	-0.12085
-0.00579834	-0.112305	-0.118103
-0.00549316	-0.111084	-0.116577
-0.00610352	-0.109863	-0.115967
-0.00701904	-0.108948	-0.115967
-0.00762939	-0.108643	-0.116272
-0.00732422	-0.108643	-0.115967
-0.00640869	-0.109253	-0.115662
-0.00579834	-0.109863	-0.115662
-0.00610352	-0.110474	-0.116577
-0.00701904	-0.110779	-0.117798
-0.00793457	-0.110474	-0.118408
-0.00793457	-0.109863	-0.117798
-0.00640869	-0.109558	-0.115967
-0.00396729	-0.109558	-0.113525
-0.00152588	-0.109558	-0.111084
0	-0.109558	-0.109558
0.000305176	-0.109253	-0.108948
0	-0.108337	-0.108337
-0.000305176	-0.107727	-0.108032
-0.000610352	-0.107727	-0.108337
0	-0.108337	-0.108337
0.000610352	-0.108948	-0.108337
0.00152588	-0.109558	-0.108032
0.00183105	-0.109863	-0.108032
0.00183105	-0.109558	-0.107727
0.00213623	-0.108948	-0.106812
0.00335693	-0.108643	-0.105286
0.00488281	-0.108643	-0.10376
0.00549316	-0.107727	-0.102234
0.00549316	-0.106201	-0.100708
0.00457764	-0.104065	-0.0994873
0.00396729	-0.102234	-0.0982666
0.00457764	-0.101318	-0.0967407
0.00518799	-0.101013	-0.0958252
0.00579834	-0.100403	-0.0946045
0.00610352	-0.0994873	-0.0933838
0.00732422	-0.098877	-0.0915527
0.00946045	-0.0985718	-0.0891113
0.0119019	-0.0991821	-0.0872803
0.0146484	-0.100403	-0.0857544
0.0180054	-0.101929	-0.0839233
0.0213623	-0.103149	-0.0817871
0.0238037	-0.103455	-0.0796509
0.0250244	-0.103149	-0.078125
0.0265503	-0.102844	-0.0762939
0.0280762	-0.102844	-0.0747681
0.0302124	-0.10376	-0.0735474
0.0323486	-0.104065	-0.0717163
0.03479	-0.10437	-0.0695801
0.0369263	-0.104675	-0.067749
0.0375366	-0.10498	-0.0674438
0.0375366	-0.105286	-0.067749
0.0390625	-0.106506	-0.0674438
0.0418091	-0.108337	-0.0665283
0.0439453	-0.109558	-0.0656128
0.0454712	-0.110168	-0.0646973
0.0476074	-0.110779	-0.0631714
0.0491333	-0.111084	-0.0619507
0.0500488	-0.110474	-0.0604248
0.0512695	-0.109863	-0.0585938
0.0534058	-0.109253	-0.0558472
0.0558472	-0.108643	-0.0527954
0.0588989	-0.108032	-0.0491333
0.0619507	-0.108032	-0.0460815
0.0640869	-0.108643	-0.0445557
0.0650024	-0.108948	-0.0439453
0.065918	-0.108948	-0.0430298
0.0683594	-0.110168	-0.0418091
0.0717163	-0.11261	-0.0408936
0.0744629	-0.114746	-0.0402832
0.0759888	-0.116272	-0.0402832
0.0769043	-0.116882	-0.039978
0.0787354	-0.117493	-0.0387573
0.0802612	-0.117493	-0.0372314
0.0802612	-0.116272	-0.0360107
0.0787354	-0.114136	-0.0354004
0.0759888	-0.110474	-0.0344849
0.0723267	-0.105591	-0.0332642
0.067749	-0.100098	-0.0323486
0.062561	-0.0942993	-0.0317383
0.0570679	-0.0881958	-0.0311279
0.0512695	-0.0817871	-0.0305176
0.0445557	-0.0756836	-0.0311279
0.0378418	-0.0701904	-0.0323486
0.0302124	-0.065918	-0.0357056
0.022583	-0.062561	-0.039978
0.015564	-0.0598145	-0.0442505
0.00976563	-0.057373	-0.0476074
0.00427246	-0.0543213	-0.0500488
-0.00152588	-0.0509644	-0.0524902
-0.00701904	-0.0476074	-0.0546265
-0.0112915	-0.0445557	-0.0558472
-0.0146484	-0.0421143	-0.0567627
-0.0167847	-0.039978	-0.0567627
-0.0186157	-0.0384521	-0.0570679
-0.0204468	-0.0372314	-0.0576782
-0.022583	-0.0363159	-0.0588989
-0.0247192	-0.0360107	-0.06073
-0.0265503	-0.0369263	-0.0634766
-0.0289917	-0.038147	-0.0671387
-0.0317383	-0.0387573	-0.0704956
-0.0350952	-0.038147	-0.0732422
-0.0387573	-0.0369263	-0.0756836
-0.0421143	-0.0360107	-0.078125
-0.0445557	-0.03479	-0.0793457
-0.0457764	-0.0332642	-0.0790405
-0.045166	-0.0326538	-0.0778198
-0.0427246	-0.0335693	-0.0762939
-0.0396729	-0.0354004	-0.0750732
-0.0366211	-0.0372314	-0.0738525
-0.0332642	-0.0393677	-0.0726318
-0.0299072	-0.0411987	-0.071106
-0.0274658	-0.0427246	-0.0701904
-0.0259399	-0.0436401	-0.0695801
-0.0253296	-0.0436401	-0.0689697
-0.0253296	-0.0427246	-0.0680542
-0.0256348	-0.0421143	-0.067749
-0.0256348	-0.0415039	-0.0671387
-0.0256348	-0.0408936	-0.0665283
-0.0259399	-0.0408936	-0.0668335
-0.0253296	-0.0415039	-0.0668335
-0.0250244	-0.0427246	-0.067749
-0.0250244	-0.0436401	-0.0686646
-0.0241089	-0.045166	-0.0692749
-0.0222778	-0.0463867	-0.0686646
-0.0195313	-0.0476074	-0.0671387
-0.017395	-0.0476074	-0.0650024
-0.0167847	-0.0460815	-0.0628662
-0.0164795	-0.0436401	-0.0601196
-0.0161743	-0.0418091	-0.0579834
-0.0146484	-0.0405884	-0.0552368
-0.0125122	-0.0402832	-0.0527954
-0.0112915	-0.0402832	-0.0515747
-0.0106812	-0.0408936	-0.0515747
-0.0106812	-0.0415039	-0.0521851
-0.0109863	-0.0427246	-0.0537109
-0.0115967	-0.0442505	-0.0558472
-0.0134277	-0.0457764	-0.0592041
-0.0158691	-0.0463867	-0.0622559
-0.0183105	-0.0457764	-0.0640869
-0.0204468	-0.0445557	-0.0650024
-0.0222778	-0.0430298	-0.0653076
-0.0228882	-0.0411987	-0.0640869
-0.0228882	-0.0393677	-0.0622559
-0.0222778	-0.0384521	-0.06073
-0.0219727	-0.0378418	-0.0598145
-0.0216675	-0.0372314	-0.0588989
-0.0201416	-0.0372314	-0.057373
-0.0192261	-0.0369263	-0.0561523
-0.0189209	-0.0366211	-0.055542
-0.0195313	-0.0363159	-0.0558472
-0.0204468	-0.0357056	-0.0561523
-0.0219727	-0.0341797	-0.0561523
-0.0234985	-0.0320435	-0.055542
-0.0241089	-0.0305176	-0.0546265
-0.0244141	-0.0289917	-0.0534058
-0.0241089	-0.0271606	-0.0512695
-0.0241089	-0.0253296	-0.0494385
-0.0231934	-0.0238037	-0.0469971
-0.0216675	-0.0234985	-0.045166
-0.0204468	-0.0238037	-0.0442505
-0.0201416	-0.0250244	-0.045166
-0.0195313	-0.0268555	-0.0463867
-0.0189209	-0.0289917	-0.0479126
-0.0186157	-0.0308228	-0.0494385
-0.0177002	-0.0323486	-0.0500488
-0.017395	-0.032959	-0.050354
-0.017395	-0.0326538	-0.0500488
-0.0177002	-0.0326538	-0.050354
-0.0192261	-0.0317383	-0.0509644
-0.020752	-0.0305176	-0.0512695
-0.0213623	-0.0292969	-0.0506592
-0.0222778	-0.0268555	-0.0491333
-0.0247192	-0.0238037	-0.0485229
-0.0268555	-0.0219727	-0.0488281
-0.0283813	-0.0216675	-0.0500488
-0.0296021	-0.0222778	-0.0518799
-0.0305176	-0.022583	-0.0531006
-0.0305176	-0.0231934	-0.0537109
-0.0296021	-0.0244141	-0.0540161
-0.027771	-0.0256348	-0.0534058
-0.0250244	-0.0271606	-0.0521851
-0.0210571	-0.0289917	-0.0500488
-0.0170898	-0.0308228	-0.0479126
-0.0146484	-0.0323486	-0.0469971
-0.0140381	-0.0332642	-0.0473022
-0.0140381	-0.0338745	-0.0479126
-0.0128174	-0.0338745	-0.0466919
-0.0119019	-0.0335693	-0.0454712
-0.0125122	-0.0332642	-0.0457764
-0.0152588	-0.0332642	-0.0485229
-0.0183105	-0.0332642	-0.0515747
-0.0204468	-0.032959	-0.0534058
-0.0219727	-0.0323486	-0.0543213
-0.022583	-0.0314331	-0.0540161
-0.0228882	-0.0311279	-0.0540161
-0.0219727	-0.0308228	-0.0527954
-0.0210571	-0.0305176	-0.0515747
-0.0204468	-0.0308228	-0.0512695
-0.0201416	-0.0317383	-0.0518799
-0.0204468	-0.0326538	-0.0531006
-0.0204468	-0.0341797	-0.0546265
-0.0213623	-0.0350952	-0.0564575
-0.0222778	-0.0363159	-0.0585938
-0.022583	-0.0378418	-0.0604248
-0.0234985	-0.0396729	-0.0631714
-0.0250244	-0.0408936	-0.065918
-0.0265503	-0.0418091	-0.0683594
-0.027771	-0.0421143	-0.0698853
-0.0286865	-0.0415039	-0.0701904
-0.0286865	-0.0408936	-0.0695801
-0.0283813	-0.039978	-0.0683594
-0.0274658	-0.0384521	-0.065918
-0.0265503	-0.0360107	-0.062561
-0.0262451	-0.0320435	-0.0582886
-0.0265503	-0.0274658	-0.0540161
-0.027771	-0.0213623	-0.0491333
-0.0292969	-0.0140381	-0.043335
-0.0302124	-0.00549316	-0.0357056
-0.0311279	0.00396729	-0.0271606
-0.032959	0.0134277	-0.0195313
-0.0354004	0.0222778	-0.0131226
-0.0378418	0.0299072	-0.00793457
-0.039978	0.0369263	-0.00305176
-0.0405884	0.0424194	0.00183105
-0.0396729	0.0473022	0.00762939
-0.0372314	0.0518799	0.0146484
-0.0338745	0.0576782	0.0238037
-0.0311279	0.0646973	0.0335693
-0.0286865	0.0732422	0.0445557
-0.0262451	0.0830078	0.0567627
-0.0238037	0.0939941	0.0701904
-0.0216675	0.106506	0.0848389
-0.0201416	0.120239	0.100098
-0.0198364	0.134277	0.114441
-0.0201416	0.14679	0.126648
-0.0210571	0.155945	0.134888
-0.020752	0.159912	0.13916
-0.0192261	0.158081	0.138855
-0.017395	0.151062	0.133667
-0.0164795	0.140381	0.123901
-0.0170898	0.127869	0.110779
-0.0183105	0.114441	0.0961304
-0.0198364	0.0997925	0.0799561
-0.0216675	0.0842285	0.062561
-0.0244141	0.067749	0.043335
-0.0280762	0.0512695	0.0231934
-0.032959	0.0350952	0.00213623
-0.0375366	0.0189209	-0.0186157
-0.0415039	0.00274658	-0.0387573
-0.0445557	-0.0128174	-0.057373
-0.0460815	-0.0274658	-0.0735474
-0.045166	-0.0424194	-0.0875854
-0.0430298	-0.0558472	-0.098877
-0.0411987	-0.0668335	-0.108032
-0.0387573	-0.0759888	-0.114746
-0.0357056	-0.083313	-0.119019
-0.0323486	-0.0894165	-0.121765
-0.0299072	-0.093689	-0.123596
-0.0280762	-0.0961304	-0.124207
-0.0259399	-0.0973511	-0.123291
-0.0241089	-0.0985718	-0.122681
-0.022583	-0.100708	-0.123291
-0.0201416	-0.10437	-0.124512
-0.0177002	-0.109558	-0.127258
-0.0149536	-0.117188	-0.132141
-0.012207	-0.126953	-0.13916
-0.0088501	-0.138245	-0.147095
-0.00427246	-0.150146	-0.154419
0.000610352	-0.160522	-0.159912
0.00610352	-0.167542	-0.161438
0.0125122	-0.169067	-0.156555
0.0204468	-0.163574	-0.143127
0.0289917	-0.148926	-0.119934
0.0378418	-0.123291	-0.0854492
0.0476074	-0.0842285	-0.0366211
0.0579834	-0.0311279	0.0268555
0.0680542	0.0378418	0.105896
0.0772095	0.122375	0.199585
0.0854492	0.221558	0.307007
0.0949097	0.328064	0.422974
0.108032	0.433655	0.541687
0.124512	0.531616	0.656128
0.140991	0.617676	0.758667
0.155029	0.686035	0.841064
0.167236	0.72937	0.896606
0.177612	0.741272	0.918884
0.1828	0.721436	0.904236
0.179749	0.672302	0.852051
0.166626	0.597229	0.763855
0.144653	0.500793	0.645447
0.115662	0.390015	0.505676
0.083313	0.273743	0.357056
0.0485229	0.161743	0.210266
0.0140381	0.0610352	0.0750732
-0.0167847	-0.0231934	-0.039978
-0.0408936	-0.0881958	-0.129089
-0.0564575	-0.132751	-0.189209
-0.0631714	-0.158997	-0.222168
-0.0622559	-0.169067	-0.231323
-0.0549316	-0.167236	-0.222168
-0.0442505	-0.157166	-0.201416
-0.0338745	-0.142517	-0.176392
-0.0247192	-0.127869	-0.152588
-0.0164795	-0.115356	-0.131836
-0.010376	-0.106506	-0.116882
-0.00762939	-0.101013	-0.108643
-0.00671387	-0.0985718	-0.105286
-0.00671387	-0.0991821	-0.105896
-0.00671387	-0.102234	-0.108948
-0.00579834	-0.106506	-0.112305
-0.00396729	-0.111694	-0.115662
-0.000915527	-0.115967	-0.116882
0.00244141	-0.118713	-0.116272
0.00457764	-0.119934	-0.115356
0.00518799	-0.119934	-0.114746
0.00427246	-0.118103	-0.113831
0.00213623	-0.115662	-0.113525
-0.000610352	-0.112	-0.11261
-0.00335693	-0.108337	-0.111694
-0.00640869	-0.10437	-0.110779
-0.00976563	-0.101013	-0.110779
-0.0119019	-0.098877	-0.110779
-0.012207	-0.0979614	-0.110168
-0.010376	-0.0970459	-0.107422
-0.00701904	-0.0970459	-0.104065
-0.00274658	-0.0976563	-0.100403
0.00183105	-0.0991821	-0.0973511
0.00671387	-0.101318	-0.0946045
0.0109863	-0.103149	-0.0921631
0.0134277	-0.10437	-0.0909424
0.0140381	-0.104675	-0.0906372
0.0131226	-0.104675	-0.0915527
0.0115967	-0.104065	-0.0924683
0.00946045	-0.103149	-0.093689
0.00579834	-0.101624	-0.0958252
0.000915527	-0.0994873	-0.0985718
-0.00335693	-0.0970459	-0.100403
-0.00549316	-0.0949097	-0.100403
-0.00549316	-0.0933838	-0.098877
-0.00488281	-0.0921631	-0.0970459
-0.00366211	-0.0915527	-0.0952148
-0.00152588	-0.0912476	-0.0927734
0.000610352	-0.0915527	-0.0909424
0.00183105	-0.0918579	-0.0900269
0.00183105	-0.0915527	-0.0897217
0.0012207	-0.0909424	-0.0897217
0.00152588	-0.0909424	-0.0894165
0.00183105	-0.0912476	-0.0894165
0.00213623	-0.0915527	-0.0894165
0.00244141	-0.0918579	-0.0894165
0.00305176	-0.0918579	-0.0888062
0.00366211	-0.0915527	-0.0878906
0.00427246	-0.090332	-0.0860596
0.00518799	-0.0897217	-0.0845337
0.00732422	-0.090332	-0.0830078
0.00976563	-0.0921631	-0.0823975
0.0125122	-0.0942993	-0.0817871
0.0146484	-0.0961304	-0.0814819
0.0164795	-0.0976563	-0.0811768
0.0177002	-0.0982666	-0.0805664
0.0195313	-0.0985718	-0.0790405
0.0219727	-0.098877	-0.0769043
0.0244141	-0.098877	-0.0744629
0.0265503	-0.0982666	-0.0717163
0.0289917	-0.0973511	-0.0683594
0.0311279	-0.0961304	-0.0650024
0.0332642	-0.0952148	-0.0619507
0.03479	-0.0946045	-0.0598145
0.0354004	-0.0939941	-0.0585938
0.0357056	-0.0939941	-0.0582886
0.0357056	-0.0939941	-0.0582886
0.0357056	-0.0949097	-0.0592041
0.0360107	-0.0961304	-0.0601196
0.0360107	-0.0976563	-0.0616455
0.0369263	-0.098877	-0.0619507
0.038147	-0.0994873	-0.0613403
0.0393677	-0.0997925	-0.0604248
0.039978	-0.0997925	-0.0598145
0.0402832	-0.0994873	-0.0592041
0.0405884	-0.0991821	-0.0585938
0.0408936	-0.0982666	-0.057373
0.0418091	-0.0970459	-0.0552368
0.045166	-0.0976563	-0.0524902
0.0494385	-0.0991821	-0.0497437
0.0527954	-0.100708	-0.0479126
0.0552368	-0.101624	-0.0463867
0.0579834	-0.102539	-0.0445557
0.0613403	-0.103455	-0.0421143
0.0643921	-0.10437	-0.039978
0.0680542	-0.106506	-0.0384521
0.071106	-0.108948	-0.0378418
0.0726318	-0.111084	-0.0384521
0.0732422	-0.112305	-0.0390625
0.0744629	-0.113831	-0.0393677
0.0765991	-0.115662	-0.0390625
0.0793457	-0.117493	-0.038147
0.0827026	-0.119019	-0.0363159
0.0854492	-0.119934	-0.0344849
0.0875854	-0.120544	-0.032959
0.0888062	-0.120239	-0.0314331
0.0900269	-0.119019	-0.0289917
0.0909424	-0.117188	-0.0262451
0.090332	-0.114441	-0.0241089
0.0872803	-0.110474	-0.0231934
0.0823975	-0.105591	-0.0231934
0.0775146	-0.101013	-0.0234985
0.072937	-0.0961304	-0.0231934
0.0692749	-0.0915527	-0.0222778
0.065918	-0.0875854	-0.0216675
0.0616455	-0.0836182	-0.0219727
0.055542	-0.0799561	-0.0244141
0.0494385	-0.0765991	-0.0271606
0.0442505	-0.0735474	-0.0292969
0.0402832	-0.0704956	-0.0302124
0.0357056	-0.0674438	-0.0317383
0.0299072	-0.0650024	-0.0350952
0.0228882	-0.062561	-0.0396729
0.0164795	-0.0610352	-0.0445557
0.0115967	-0.0601196	-0.0485229
0.00793457	-0.0592041	-0.0512695
0.00427246	-0.057373	-0.0531006
0.0012207	-0.0567627	-0.055542
-0.00152588	-0.0570679	-0.0585938
-0.00396729	-0.0570679	-0.0610352
-0.00701904	-0.0567627	-0.0637817
-0.010376	-0.0558472	-0.0662231
-0.0140381	-0.0543213	-0.0683594
-0.0167847	-0.0524902	-0.0692749
-0.0186157	-0.0515747	-0.0701904
-0.0210571	-0.0506592	-0.0717163
-0.0247192	-0.0488281	-0.0735474
-0.0286865	-0.0469971	-0.0756836
-0.0317383	-0.0454712	-0.0772095
-0.0332642	-0.0442505	-0.0775146
-0.0338745	-0.0436401	-0.0775146
-0.0338745	-0.043335	-0.0772095
-0.0344849	-0.0436401	-0.078125
-0.0350952	-0.0436401	-0.0787354
-0.0357056	-0.0439453	-0.0796509
-0.0366211	-0.0445557	-0.0811768
-0.0369263	-0.0454712	-0.0823975
-0.0357056	-0.0469971	-0.0827026
-0.03479	-0.0479126	-0.0827026
-0.0354004	-0.0488281	-0.0842285
-0.0372314	-0.0494385	-0.0866699
-0.0387573	-0.050354	-0.0891113
-0.0396729	-0.0512695	-0.0909424
-0.039978	-0.0524902	-0.0924683
-0.0396729	-0.0531006	-0.0927734
-0.039978	-0.0534058	-0.0933838
-0.0405884	-0.0527954	-0.0933838
-0.0408936	-0.0512695	-0.0921631
-0.0408936	-0.0494385	-0.090332
-0.0415039	-0.0473022	-0.0888062
-0.043335	-0.0457764	-0.0891113
-0.0442505	-0.0445557	-0.0888062
-0.0439453	-0.043335	-0.0872803
-0.0439453	-0.0411987	-0.085144
-0.0439453	-0.0387573	-0.0827026
-0.0427246	-0.0378418	-0.0805664
-0.0405884	-0.0384521	-0.0790405
-0.0378418	-0.0390625	-0.0769043
-0.0350952	-0.0393677	-0.0744629
-0.032959	-0.0390625	-0.0720215
-0.0320435	-0.0378418	-0.0698853
-0.0305176	-0.0378418	-0.0683594
-0.0286865	-0.0387573	-0.0674438
-0.0265503	-0.0402832	-0.0668335
-0.0256348	-0.0411987	-0.0668335
-0.0259399	-0.0415039	-0.0674438
-0.0256348	-0.0421143	-0.067749
-0.0247192	-0.0427246	-0.0674438
-0.0241089	-0.0430298	-0.0671387
-0.0234985	-0.0436401	-0.0671387
-0.0228882	-0.0439453	-0.0668335
-0.0228882	-0.0439453	-0.0668335
-0.0231934	-0.043335	-0.0665283
-0.0234985	-0.0436401	-0.0671387
-0.0234985	-0.0436401	-0.0671387
-0.0234985	-0.043335	-0.0668335
-0.0231934	-0.0427246	-0.065918
-0.022583	-0.0424194	-0.0650024
-0.0219727	-0.0430298	-0.0650024
-0.020752	-0.0436401	-0.0643921
-0.0189209	-0.0439453	-0.0628662
-0.0167847	-0.043335	-0.0601196
-0.015564	-0.0421143	-0.0576782
-0.0149536	-0.0405884	-0.055542
-0.0152588	-0.038147	-0.0534058
-0.0164795	-0.03479	-0.0512695
-0.017395	-0.0320435	-0.0494385
-0.0183105	-0.0305176	-0.0488281
-0.0201416	-0.0296021	-0.0497437
-0.0228882	-0.0289917	-0.0518799
-0.0247192	-0.0283813	-0.0531006
-0.0256348	-0.0280762	-0.0537109
-0.0256348	-0.0280762	-0.0537109
-0.0259399	-0.0286865	-0.0546265
-0.0265503	-0.0289917	-0.055542
-0.0271606	-0.0292969	-0.0564575
-0.0283813	-0.0296021	-0.0579834
-0.0292969	-0.0302124	-0.0595093
-0.0286865	-0.0320435	-0.06073
-0.0268555	-0.0341797	-0.0610352
-0.0247192	-0.03479	-0.0595093
-0.022583	-0.0357056	-0.0582886
-0.0213623	-0.0369263	-0.0582886
-0.0204468	-0.0378418	-0.0582886
-0.0192261	-0.0384521	-0.0576782
-0.0170898	-0.0387573	-0.0558472
-0.0152588	-0.0390625	-0.0543213
-0.0134277	-0.0393677	-0.0527954
-0.0125122	-0.0393677	-0.0518799
-0.0128174	-0.0390625	-0.0518799
-0.0134277	-0.0387573	-0.0521851
-0.0140381	-0.0390625	-0.0531006
-0.0143433	-0.0393677	-0.0537109
-0.0140381	-0.0396729	-0.0537109
-0.0134277	-0.0396729	-0.0531006
-0.0131226	-0.0390625	-0.0521851
-0.0134277	-0.0378418	-0.0512695
-0.0143433	-0.0357056	-0.0500488
-0.0158691	-0.0326538	-0.0485229
-0.017395	-0.0302124	-0.0476074
-0.0180054	-0.0283813	-0.0463867
-0.0177002	-0.0274658	-0.045166
-0.0180054	-0.0274658	-0.0454712
-0.0189209	-0.027771	-0.0466919
-0.0198364	-0.0283813	-0.0482178
-0.0195313	-0.0289917	-0.0485229
-0.0192261	-0.0299072	-0.0491333
-0.0192261	-0.0323486	-0.0515747
-0.0198364	-0.03479	-0.0546265
-0.020752	-0.0360107	-0.0567627
-0.0213623	-0.0363159	-0.0576782
-0.0213623	-0.0360107	-0.057373
-0.0213623	-0.0357056	-0.0570679
-0.0216675	-0.0350952	-0.0567627
-0.0213623	-0.03479	-0.0561523
-0.0213623	-0.0338745	-0.0552368
-0.0231934	-0.0317383	-0.0549316
-0.0250244	-0.027771	-0.0527954
-0.0256348	-0.0228882	-0.0485229
-0.0256348	-0.0167847	-0.0424194
-0.0256348	-0.00946045	-0.0350952
-0.0259399	-0.00183105	-0.027771
-0.0262451	0.00579834	-0.0204468
-0.0253296	0.0134277	-0.0119019
-0.0231934	0.020752	-0.00244141
-0.0213623	0.027771	0.00640869
-0.0189209	0.0338745	0.0149536
-0.015564	0.0384521	0.0228882
-0.0112915	0.0424194	0.0311279
-0.00610352	0.0457764	0.0396729
-0.0012207	0.0494385	0.0482178
0.00213623	0.0549316	0.0570679
0.00305176	0.0634766	0.0665283
0.00244141	0.0747681	0.0772095
0.00183105	0.0869751	0.0888062
0.000610352	0.100098	0.100708
-0.000915527	0.11322	0.112305
-0.00213623	0.125732	0.123596
-0.00274658	0.137024	0.134277
-0.00305176	0.145874	0.142822
-0.00366211	0.151367	0.147705
-0.00366211	0.152893	0.149231
-0.00305176	0.150452	0.1474
-0.00183105	0.144653	0.142822
-0.000305176	0.136108	0.135803
0.000610352	0.125732	0.126343
0	0.113525	0.113525
-0.0012207	0.0994873	0.0982666
-0.00335693	0.0848389	0.0814819
-0.00610352	0.0698853	0.0637817
-0.0088501	0.0543213	0.0454712
-0.0109863	0.0378418	0.0268555
-0.0125122	0.0201416	0.00762939
-0.0131226	0.00244141	-0.0106812
-0.0134277	-0.0146484	-0.0280762
-0.0140381	-0.0302124	-0.0442505
-0.0152588	-0.043335	-0.0585938
-0.0158691	-0.0540161	-0.0698853
-0.0152588	-0.0628662	-0.078125
-0.0140381	-0.0692749	-0.083313
-0.0143433	-0.0726318	-0.0869751
-0.0149536	-0.0738525	-0.0888062
-0.0152588	-0.0732422	-0.088501
-0.0149536	-0.0720215	-0.0869751
-0.0143433	-0.071106	-0.0854492
-0.0137329	-0.0708008	-0.0845337
-0.0128174	-0.0726318	-0.0854492
-0.0112915	-0.0775146	-0.0888062
-0.00854492	-0.085144	-0.093689
-0.00579834	-0.0952148	-0.101013
-0.00244141	-0.107727	-0.110168
0.00213623	-0.12207	-0.119934
0.00701904	-0.136108	-0.129089
0.0112915	-0.147095	-0.135803
0.0149536	-0.152283	-0.137329
0.0189209	-0.150146	-0.131226
0.0238037	-0.139465	-0.115662
0.0289917	-0.118713	-0.0897217
0.0344849	-0.0848389	-0.050354
0.0405884	-0.0378418	0.00274658
0.0463867	0.0213623	0.067749
0.0521851	0.0918579	0.144043
0.0567627	0.17334	0.230103
0.0619507	0.263672	0.325623
0.0704956	0.35675	0.427246
0.083313	0.444641	0.527954
0.0994873	0.521851	0.621338
0.115967	0.585022	0.700989
0.131836	0.632324	0.76416
0.14679	0.660095	0.806885
0.158997	0.664063	0.823059
0.166321	0.641479	0.8078
0.1651	0.595093	0.760193
0.154114	0.528564	0.682678
0.133057	0.446167	0.579224
0.104065	0.353394	0.457458
0.0708008	0.256958	0.327759
0.0366211	0.162659	0.19928
0.00366211	0.0756836	0.0793457
-0.0259399	-0.000610352	-0.0265503
-0.0494385	-0.0631714	-0.11261
-0.0656128	-0.110779	-0.176392
-0.0723267	-0.143433	-0.215759
-0.0689697	-0.162659	-0.231628
-0.0582886	-0.170898	-0.229187
-0.0436401	-0.170898	-0.214539
-0.0280762	-0.166321	-0.194397
-0.0149536	-0.158691	-0.173645
-0.00488281	-0.150146	-0.155029
0.00305176	-0.142212	-0.13916
0.00762939	-0.135803	-0.128174
0.00823975	-0.130615	-0.122375
0.00701904	-0.127258	-0.120239
0.00549316	-0.126038	-0.120544
0.00427246	-0.126648	-0.122375
0.00457764	-0.128784	-0.124207
0.00579834	-0.132141	-0.126343
0.00579834	-0.134277	-0.128479
0.00457764	-0.135498	-0.13092
0.00457764	-0.137024	-0.132446
0.00518799	-0.137939	-0.132751
0.00549316	-0.138855	-0.133362
0.00549316	-0.139465	-0.133972
0.00366211	-0.139465	-0.135803
0.00152588	-0.139771	-0.138245
0.000915527	-0.140381	-0.139465
0.000915527	-0.140076	-0.13916
0.00152588	-0.139771	-0.138245
0.00305176	-0.139771	-0.136719
0.00488281	-0.140381	-0.135498
0.00640869	-0.141296	-0.134888
0.00762939	-0.141296	-0.133667
0.00915527	-0.140381	-0.131226
0.0109863	-0.13916	-0.128174
0.0131226	-0.138245	-0.125122
0.0149536	-0.138245	-0.123291
0.0167847	-0.13855	-0.121765
0.017395	-0.13855	-0.121155
0.0167847	-0.137634	-0.12085
0.0161743	-0.136108	-0.119934
0.0164795	-0.135498	-0.119019
0.0177002	-0.135803	-0.118103
0.0180054	-0.136414	-0.118408
0.0177002	-0.137024	-0.119324
0.0170898	-0.136719	-0.119629
0.0167847	-0.136414	-0.119629
0.0177002	-0.136108	-0.118408
0.0195313	-0.136108	-0.116577
0.0210571	-0.137024	-0.115967
0.0210571	-0.137024	-0.115967
0.0210571	-0.136414	-0.115356
0.0210571	-0.135803	-0.114746
0.0216675	-0.136108	-0.114441
0.0222778	-0.136719	-0.114441
0.0228882	-0.137634	-0.114746
0.0238037	-0.13855	-0.114746
0.0250244	-0.139771	-0.114746
0.0256348	-0.140076	-0.114441
0.0262451	-0.140076	-0.113831
0.027771	-0.139771	-0.112
0.0299072	-0.13916	-0.109253
0.0320435	-0.138855	-0.106812
0.032959	-0.138245	-0.105286
0.032959	-0.136719	-0.10376
0.0332642	-0.134888	-0.101624
0.0335693	-0.133362	-0.0997925
0.0335693	-0.132446	-0.098877
0.032959	-0.131531	-0.0985718
0.0317383	-0.130005	-0.0982666
0.0311279	-0.129089	-0.0979614
0.0308228	-0.129089	-0.0982666
0.0323486	-0.129089	-0.0967407
0.0357056	-0.1297	-0.0939941
0.039978	-0.130005	-0.0900269
0.0436401	-0.13031	-0.0866699
0.0463867	-0.130615	-0.0842285
0.0491333	-0.131226	-0.0820923
0.0524902	-0.131531	-0.0790405
0.0567627	-0.132751	-0.0759888
0.06073	-0.133972	-0.0732422
0.0637817	-0.135193	-0.0714111
0.0665283	-0.137024	-0.0704956
0.0692749	-0.139465	-0.0701904
0.0717163	-0.142212	-0.0704956
0.0738525	-0.144958	-0.071106
0.0753784	-0.1474	-0.0720215
0.0759888	-0.149536	-0.0735474
0.0756836	-0.150452	-0.0747681
0.0756836	-0.151672	-0.0759888
0.0762939	-0.153503	-0.0772095
0.0775146	-0.155334	-0.0778198
0.0793457	-0.158081	-0.0787354
0.0808716	-0.160828	-0.0799561
0.0827026	-0.163269	-0.0805664
0.0848389	-0.1651	-0.0802612
0.0872803	-0.166016	-0.0787354
0.0897217	-0.166931	-0.0772095
0.0930786	-0.168152	-0.0750732
0.0967407	-0.169678	-0.072937
0.0997925	-0.170593	-0.0708008
0.100708	-0.170593	-0.0698853
0.100098	-0.169678	-0.0695801
0.0994873	-0.168762	-0.0692749
0.100098	-0.168152	-0.0680542
0.101624	-0.168762	-0.0671387
0.102844	-0.169373	-0.0665283
0.103455	-0.169373	-0.065918
0.103455	-0.169678	-0.0662231
0.102234	-0.169373	-0.0671387
0.101318	-0.168152	-0.0668335
0.101624	-0.166626	-0.0650024
0.101624	-0.164795	-0.0631714
0.0991821	-0.161438	-0.0622559
0.0933838	-0.15686	-0.0634766
0.0854492	-0.151062	-0.0656128
0.0765991	-0.144958	-0.0683594
0.0680542	-0.138855	-0.0708008
0.0595093	-0.132751	-0.0732422
0.0515747	-0.127258	-0.0756836
0.0427246	-0.12146	-0.0787354
0.0332642	-0.115662	-0.0823975
0.0241089	-0.110779	-0.0866699
0.0164795	-0.105591	-0.0891113
0.0100708	-0.100403	-0.090332
0.00549316	-0.0958252	-0.090332
0.00244141	-0.0912476	-0.0888062
-0.000305176	-0.0869751	-0.0872803
-0.00335693	-0.0827026	-0.0860596
-0.00671387	-0.0787354	-0.0854492
-0.00946045	-0.0753784	-0.0848389
-0.0112915	-0.0726318	-0.0839233
-0.0134277	-0.0708008	-0.0842285
-0.0158691	-0.0698853	-0.0857544
-0.0180054	-0.0701904	-0.0881958
-0.0195313	-0.0717163	-0.0912476
-0.0204468	-0.0747681	-0.0952148
-0.0204468	-0.0784302	-0.098877
-0.0198364	-0.0820923	-0.101929
-0.0201416	-0.0854492	-0.105591
-0.020752	-0.0878906	-0.108643
-0.0216675	-0.0888062	-0.110474
-0.0231934	-0.088501	-0.111694
-0.0241089	-0.0872803	-0.111389
-0.0247192	-0.0860596	-0.110779
-0.0256348	-0.0848389	-0.110474
-0.0268555	-0.0830078	-0.109863
-0.0271606	-0.0820923	-0.109253
-0.0259399	-0.0830078	-0.108948
-0.0238037	-0.0857544	-0.109558
-0.0213623	-0.0888062	-0.110168
-0.0192261	-0.0909424	-0.110168
-0.0180054	-0.0927734	-0.110779
-0.0170898	-0.0949097	-0.112
-0.0152588	-0.0976563	-0.112915
-0.0143433	-0.098877	-0.11322
-0.0149536	-0.0982666	-0.11322
-0.0170898	-0.0961304	-0.11322
-0.0198364	-0.0933838	-0.11322
-0.0219727	-0.0900269	-0.112
-0.0228882	-0.0875854	-0.110474
-0.0228882	-0.0857544	-0.108643
-0.0228882	-0.0848389	-0.107727
-0.022583	-0.0842285	-0.106812
-0.0219727	-0.083313	-0.105286
-0.0210571	-0.0827026	-0.10376
-0.0198364	-0.0823975	-0.102234
-0.0189209	-0.0814819	-0.100403
-0.0183105	-0.0805664	-0.098877
-0.0177002	-0.0799561	-0.0976563
-0.0177002	-0.0790405	-0.0967407
-0.0177002	-0.0778198	-0.09552
-0.0180054	-0.0762939	-0.0942993
-0.0189209	-0.0741577	-0.0930786
-0.0195313	-0.0720215	-0.0915527
-0.0195313	-0.0701904	-0.0897217
-0.0180054	-0.0683594	-0.0863647
-0.0167847	-0.065918	-0.0827026
-0.0167847	-0.0637817	-0.0805664
-0.0177002	-0.0613403	-0.0790405
-0.0189209	-0.0592041	-0.078125
-0.0192261	-0.0579834	-0.0772095
-0.0186157	-0.0570679	-0.0756836
-0.0177002	-0.0561523	-0.0738525
-0.0167847	-0.0561523	-0.072937
-0.0158691	-0.0576782	-0.0735474
-0.0146484	-0.0598145	-0.0744629
-0.0128174	-0.0619507	-0.0747681
-0.0109863	-0.0628662	-0.0738525
-0.0100708	-0.0631714	-0.0732422
-0.0100708	-0.0628662	-0.072937
-0.0109863	-0.0634766	-0.0744629
-0.0115967	-0.0643921	-0.0759888
-0.012207	-0.0646973	-0.0769043
-0.0128174	-0.0643921	-0.0772095
-0.0137329	-0.0637817	-0.0775146
-0.0149536	-0.0631714	-0.078125
-0.0158691	-0.0628662	-0.0787354
-0.0146484	-0.0637817	-0.0784302
-0.0125122	-0.0656128	-0.078125
-0.010376	-0.0671387	-0.0775146
-0.00915527	-0.0680542	-0.0772095
-0.00854492	-0.0680542	-0.0765991
-0.00793457	-0.067749	-0.0756836
-0.00762939	-0.0674438	-0.0750732
-0.00732422	-0.0671387	-0.0744629
-0.00823975	-0.0665283	-0.0747681
-0.0106812	-0.0653076	-0.0759888
-0.0143433	-0.0634766	-0.0778198
-0.0180054	-0.062561	-0.0805664
-0.020752	-0.0622559	-0.0830078
-0.0216675	-0.062561	-0.0842285
-0.0210571	-0.0637817	-0.0848389
-0.0198364	-0.0656128	-0.0854492
-0.0183105	-0.067749	-0.0860596
-0.0152588	-0.0701904	-0.0854492
-0.0115967	-0.072937	-0.0845337
-0.00823975	-0.0747681	-0.0830078
-0.00579834	-0.0756836	-0.0814819
-0.00427246	-0.0756836	-0.0799561
-0.00457764	-0.0747681	-0.0793457
-0.00640869	-0.0732422	-0.0796509
-0.00915527	-0.0717163	-0.0808716
-0.0125122	-0.0695801	-0.0820923
-0.0170898	-0.0671387	-0.0842285
-0.0216675	-0.0643921	-0.0860596
-0.0250244	-0.0628662	-0.0878906
-0.0271606	-0.0619507	-0.0891113
-0.027771	-0.0613403	-0.0891113
-0.0268555	-0.0610352	-0.0878906
-0.0250244	-0.0613403	-0.0863647
-0.0228882	-0.0622559	-0.085144
-0.0213623	-0.0637817	-0.085144
-0.0204468	-0.0650024	-0.0854492
-0.0195313	-0.0653076	-0.0848389
-0.0201416	-0.0643921	-0.0845337
-0.0216675	-0.0631714	-0.0848389
-0.0238037	-0.0622559	-0.0860596
-0.0253296	-0.0619507	-0.0872803
-0.0268555	-0.0616455	-0.088501
-0.0271606	-0.0616455	-0.0888062
-0.0265503	-0.062561	-0.0891113
-0.0259399	-0.0640869	-0.0900269
-0.0256348	-0.065918	-0.0915527
-0.0253296	-0.0674438	-0.0927734
-0.0253296	-0.0686646	-0.0939941
-0.0259399	-0.0701904	-0.0961304
-0.0268555	-0.0720215	-0.098877
-0.027771	-0.0738525	-0.101624
-0.0280762	-0.0753784	-0.103455
-0.0286865	-0.0753784	-0.104065
-0.0289917	-0.0747681	-0.10376
-0.0283813	-0.0744629	-0.102844
-0.0271606	-0.0744629	-0.101624
-0.0247192	-0.0747681	-0.0994873
-0.0219727	-0.0756836	-0.0976563
-0.0198364	-0.0765991	-0.0964355
-0.0186157	-0.0775146	-0.0961304
-0.0186157	-0.078125	-0.0967407
-0.0192261	-0.0784302	-0.0976563
-0.0195313	-0.0784302	-0.0979614
-0.020752	-0.0784302	-0.0991821
-0.0238037	-0.078125	-0.101929
-0.0271606	-0.0772095	-0.10437
-0.0296021	-0.0759888	-0.105591
-0.0317383	-0.0741577	-0.105896
-0.0335693	-0.0714111	-0.10498
-0.0341797	-0.0680542	-0.102234
-0.0341797	-0.0634766	-0.0976563
-0.0344849	-0.0570679	-0.0915527
-0.0350952	-0.0491333	-0.0842285
-0.0344849	-0.0405884	-0.0750732
-0.0326538	-0.032959	-0.0656128
-0.0305176	-0.0250244	-0.055542
-0.0286865	-0.017395	-0.0460815
-0.0259399	-0.0106812	-0.0366211
-0.022583	-0.00610352	-0.0286865
-0.0195313	-0.00213623	-0.0216675
-0.0167847	0.00213623	-0.0146484
-0.0140381	0.00671387	-0.00732422
-0.0112915	0.0115967	0.000305176
-0.010376	0.0183105	0.00793457
-0.0112915	0.0271606	0.0158691
-0.0131226	0.0384521	0.0253296
-0.0146484	0.0512695	0.0366211
-0.0161743	0.0643921	0.0482178
-0.0180054	0.0778198	0.0598145
-0.0201416	0.0906372	0.0704956
-0.022583	0.101929	0.0793457
-0.0241089	0.111084	0.0869751
-0.0244141	0.116882	0.0924683
-0.0222778	0.118103	0.0958252
-0.0192261	0.115356	0.0961304
-0.0161743	0.109253	0.0930786
-0.0134277	0.101318	0.0878906
-0.0112915	0.0921631	0.0808716
-0.0100708	0.0817871	0.0717163
-0.00915527	0.0695801	0.0604248
-0.0088501	0.0558472	0.0469971
-0.00946045	0.0411987	0.0317383
-0.0106812	0.0259399	0.0152588
-0.0128174	0.010376	-0.00244141
-0.0149536	-0.00549316	-0.0204468
-0.0167847	-0.0222778	-0.0390625
-0.0183105	-0.0384521	-0.0567627
-0.0192261	-0.0540161	-0.0732422
-0.0198364	-0.0683594	-0.0881958
-0.0204468	-0.0805664	-0.101013
-0.0201416	-0.0909424	-0.111084
-0.0195313	-0.098877	-0.118408
-0.0201416	-0.104065	-0.124207
-0.0222778	-0.106506	-0.128784
-0.0250244	-0.106812	-0.131836
-0.027771	-0.105591	-0.133362
-0.0305176	-0.104065	-0.134583
-0.0320435	-0.10376	-0.135803
-0.0317383	-0.105591	-0.137329
-0.0296021	-0.109558	-0.13916
-0.0268555	-0.116272	-0.143127
-0.022583	-0.126648	-0.149231
-0.0170898	-0.140991	-0.158081
-0.0100708	-0.158081	-0.168152
-0.00244141	-0.175171	-0.177612
0.00549316	-0.19043	-0.184937
0.0125122	-0.201111	-0.188599
0.0183105	-0.205078	-0.186768
0.0241089	-0.200195	-0.176086
0.0311279	-0.183716	-0.152588
0.038147	-0.153809	-0.115662
0.0454712	-0.110474	-0.0650024
0.0524902	-0.0521851	0.000305176
0.0585938	0.0222778	0.0808716
0.0646973	0.112305	0.177002
0.0717163	0.216064	0.287781
0.0814819	0.325012	0.406494
0.0946045	0.430298	0.524902
0.109558	0.526123	0.635681
0.123596	0.608826	0.732422
0.137329	0.671997	0.809326
0.150452	0.708313	0.858765
0.159912	0.713196	0.873108
0.162659	0.68634	0.848999
0.15625	0.629578	0.785828
0.142212	0.546875	0.689087
0.121155	0.444641	0.565796
0.0946045	0.331116	0.42572
0.0631714	0.215454	0.278625
0.0292969	0.106812	0.136108
-0.00457764	0.0115967	0.00701904
-0.0335693	-0.0656128	-0.0991821
-0.0552368	-0.123291	-0.178528
-0.0674438	-0.161133	-0.228577
-0.0714111	-0.18158	-0.252991
-0.0689697	-0.186462	-0.255432
-0.0622559	-0.180359	-0.242615
-0.0537109	-0.167542	-0.221252
-0.0436401	-0.152588	-0.196228
-0.03479	-0.13855	-0.17334
-0.0274658	-0.128174	-0.15564
-0.0231934	-0.121765	-0.144958
-0.0213623	-0.119019	-0.140381
-0.0219727	-0.119019	-0.140991
-0.0231934	-0.121155	-0.144348
-0.0231934	-0.125732	-0.148926
-0.0219727	-0.13092	-0.152893
-0.0201416	-0.136414	-0.156555
-0.0177002	-0.141296	-0.158997
-0.015564	-0.146179	-0.161743
-0.0137329	-0.149536	-0.163269
-0.0131226	-0.150757	-0.163879
-0.0134277	-0.150757	-0.164185
-0.0146484	-0.150146	-0.164795
-0.0158691	-0.149231	-0.1651
-0.0167847	-0.148315	-0.1651
-0.0177002	-0.14679	-0.16449
-0.0183105	-0.144653	-0.162964
-0.0180054	-0.142212	-0.160217
-0.0177002	-0.139465	-0.157166
-0.0164795	-0.137024	-0.153503
-0.0143433	-0.135803	-0.150146
-0.0115967	-0.135803	-0.1474
-0.0088501	-0.137024	-0.145874
-0.00610352	-0.138245	-0.144348
-0.00549316	-0.13855	-0.144043
-0.00610352	-0.13916	-0.145264
-0.00671387	-0.139465	-0.146179
-0.00701904	-0.13916	-0.146179
-0.00854492	-0.13855	-0.147095
-0.0100708	-0.136719	-0.14679
-0.0109863	-0.134277	-0.145264
-0.0115967	-0.131226	-0.142822
-0.0115967	-0.127869	-0.139465
-0.0112915	-0.125427	-0.136719
-0.010376	-0.124207	-0.134583
-0.0088501	-0.123596	-0.132446
-0.00640869	-0.123901	-0.13031
-0.00274658	-0.125427	-0.128174
0.000305176	-0.127563	-0.127258
0.00183105	-0.129089	-0.127258
0.00183105	-0.13031	-0.128479
0.0012207	-0.13092	-0.1297
0.000610352	-0.131226	-0.130615
0	-0.130615	-0.130615
-0.0012207	-0.128784	-0.130005
-0.00244141	-0.126343	-0.128784
-0.00427246	-0.123291	-0.127563
-0.00579834	-0.120544	-0.126343
-0.00671387	-0.118103	-0.124817
-0.00671387	-0.115662	-0.122375
-0.00579834	-0.113831	-0.119629
-0.00457764	-0.11322	-0.117798
-0.00183105	-0.113525	-0.115356
0.000915527	-0.114441	-0.113525
0.00396729	-0.115967	-0.112
0.00640869	-0.117798	-0.111389
0.00793457	-0.119629	-0.111694
0.0100708	-0.121765	-0.111694
0.0134277	-0.123596	-0.110168
0.0177002	-0.125427	-0.107727
0.0216675	-0.126343	-0.104675
0.0253296	-0.126953	-0.101624
0.0286865	-0.127258	-0.0985718
0.0323486	-0.127869	-0.09552
0.0360107	-0.128479	-0.0924683
0.039978	-0.129395	-0.0894165
0.0430298	-0.130615	-0.0875854
0.0457764	-0.132141	-0.0863647
0.0473022	-0.133362	-0.0860596
0.0476074	-0.133362	-0.0857544
0.0473022	-0.132751	-0.0854492
0.0457764	-0.131531	-0.0857544
0.0436401	-0.130005	-0.0863647
0.0415039	-0.128174	-0.0866699
0.0405884	-0.126343	-0.0857544
0.0405884	-0.125122	-0.0845337
0.0405884	-0.123596	-0.0830078
0.0411987	-0.122681	-0.0814819
0.0436401	-0.122986	-0.0793457
0.0466919	-0.125122	-0.0784302
0.0506592	-0.128479	-0.0778198
0.0549316	-0.132446	-0.0775146
0.0601196	-0.136108	-0.0759888
0.0653076	-0.140076	-0.0747681
0.0698853	-0.143127	-0.0732422
0.0735474	-0.144958	-0.0714111
0.0762939	-0.145874	-0.0695801
0.078125	-0.146484	-0.0683594
0.0790405	-0.146179	-0.0671387
0.0790405	-0.145264	-0.0662231
0.0784302	-0.143433	-0.0650024
0.0775146	-0.140991	-0.0634766
0.0775146	-0.139465	-0.0619507
0.0784302	-0.138855	-0.0604248
0.0799561	-0.13855	-0.0585938
0.0811768	-0.137939	-0.0567627
0.0817871	-0.136719	-0.0549316
0.0820923	-0.134888	-0.0527954
0.0823975	-0.132751	-0.050354
0.0817871	-0.130005	-0.0482178
0.0805664	-0.126648	-0.0460815
0.0787354	-0.122375	-0.0436401
0.0759888	-0.118103	-0.0421143
0.0726318	-0.113525	-0.0408936
0.0689697	-0.109558	-0.0405884
0.0650024	-0.105896	-0.0408936
0.0601196	-0.101929	-0.0418091
0.0543213	-0.0982666	-0.0439453
0.0488281	-0.09552	-0.0466919
0.0439453	-0.0939941	-0.0500488
0.0384521	-0.0924683	-0.0540161
0.0305176	-0.0897217	-0.0592041
0.0213623	-0.0857544	-0.0643921
0.0128174	-0.0814819	-0.0686646
0.00579834	-0.0787354	-0.072937
0.000305176	-0.0772095	-0.0769043
-0.00396729	-0.0762939	-0.0802612
-0.00732422	-0.0753784	-0.0827026
-0.010376	-0.0747681	-0.085144
-0.0125122	-0.0747681	-0.0872803
-0.0119019	-0.0769043	-0.0888062
-0.010376	-0.0796509	-0.0900269
-0.00915527	-0.0823975	-0.0915527
-0.0088501	-0.0842285	-0.0930786
-0.0100708	-0.0854492	-0.09552
-0.012207	-0.0857544	-0.0979614
-0.0149536	-0.0848389	-0.0997925
-0.017395	-0.0836182	-0.101013
-0.020752	-0.0814819	-0.102234
-0.0247192	-0.0790405	-0.10376
-0.0286865	-0.0762939	-0.10498
-0.0320435	-0.0741577	-0.106201
-0.0350952	-0.0720215	-0.107117
-0.0375366	-0.0698853	-0.107422
-0.0390625	-0.0683594	-0.107422
-0.039978	-0.0671387	-0.107117
-0.0402832	-0.0665283	-0.106812
-0.0405884	-0.0665283	-0.107117
-0.0411987	-0.0671387	-0.108337
-0.0415039	-0.0680542	-0.109558
-0.0408936	-0.0683594	-0.109253
-0.0393677	-0.0692749	-0.108643
-0.0375366	-0.0704956	-0.108032
-0.0360107	-0.0726318	-0.108643
-0.0344849	-0.0747681	-0.109253
-0.0332642	-0.0775146	-0.110779
-0.0320435	-0.0787354	-0.110779
-0.0308228	-0.0790405	-0.109863
-0.0299072	-0.0790405	-0.108948
-0.0292969	-0.0799561	-0.109253
-0.0283813	-0.0808716	-0.109253
-0.0280762	-0.0814819	-0.109558
-0.0283813	-0.0811768	-0.109558
-0.0296021	-0.0802612	-0.109863
-0.0311279	-0.0790405	-0.110168
-0.0323486	-0.0772095	-0.109558
-0.0338745	-0.0753784	-0.109253
-0.0357056	-0.0735474	-0.109253
-0.0363159	-0.072937	-0.109253
-0.0357056	-0.0738525	-0.109558
-0.0344849	-0.0750732	-0.109558
-0.032959	-0.0762939	-0.109253
-0.0314331	-0.0765991	-0.108032
-0.0289917	-0.0772095	-0.106201
-0.0259399	-0.078125	-0.104065
-0.0238037	-0.0793457	-0.103149
-0.0219727	-0.0802612	-0.102234
-0.0195313	-0.0805664	-0.100098
-0.0183105	-0.0799561	-0.0982666
-0.0186157	-0.0787354	-0.0973511
-0.0198364	-0.0765991	-0.0964355
-0.0204468	-0.0738525	-0.0942993
-0.0216675	-0.0701904	-0.0918579
-0.0231934	-0.0674438	-0.0906372
-0.0241089	-0.065918	-0.0900269
-0.0228882	-0.0656128	-0.088501
-0.0204468	-0.065918	-0.0863647
-0.0177002	-0.0653076	-0.0830078
-0.015564	-0.0646973	-0.0802612
-0.0146484	-0.0640869	-0.0787354
-0.0143433	-0.0637817	-0.078125
-0.0146484	-0.0628662	-0.0775146
-0.0158691	-0.0619507	-0.0778198
-0.0180054	-0.0613403	-0.0793457
-0.0213623	-0.0604248	-0.0817871
-0.0250244	-0.0592041	-0.0842285
-0.0274658	-0.0585938	-0.0860596
-0.027771	-0.0588989	-0.0866699
-0.0271606	-0.0595093	-0.0866699
-0.0256348	-0.0604248	-0.0860596
-0.0238037	-0.0616455	-0.0854492
-0.0216675	-0.062561	-0.0842285
-0.0195313	-0.062561	-0.0820923
-0.0186157	-0.0616455	-0.0802612
-0.0189209	-0.0601196	-0.0790405
-0.020752	-0.0579834	-0.0787354
-0.0234985	-0.055542	-0.0790405
-0.0262451	-0.0537109	-0.0799561
-0.0296021	-0.0524902	-0.0820923
-0.032959	-0.0509644	-0.0839233
-0.0350952	-0.0494385	-0.0845337
-0.0350952	-0.0494385	-0.0845337
-0.0335693	-0.0506592	-0.0842285
-0.0308228	-0.0531006	-0.0839233
-0.0268555	-0.0558472	-0.0827026
-0.022583	-0.0585938	-0.0811768
-0.0198364	-0.0610352	-0.0808716
-0.0189209	-0.0622559	-0.0811768
-0.0189209	-0.0628662	-0.0817871
-0.0198364	-0.0622559	-0.0820923
-0.0219727	-0.06073	-0.0827026
-0.0253296	-0.0588989	-0.0842285
-0.0286865	-0.057373	-0.0860596
-0.0311279	-0.0552368	-0.0863647
-0.0341797	-0.0524902	-0.0866699
-0.0369263	-0.0488281	-0.0857544
-0.038147	-0.045166	-0.083313
-0.0378418	-0.0421143	-0.0799561
-0.0354004	-0.039978	-0.0753784
-0.0320435	-0.0387573	-0.0708008
-0.0286865	-0.038147	-0.0668335
-0.0256348	-0.0384521	-0.0640869
-0.0228882	-0.0393677	-0.0622559
-0.0204468	-0.0411987	-0.0616455
-0.0183105	-0.043335	-0.0616455
-0.0167847	-0.0454712	-0.0622559
-0.017395	-0.0466919	-0.0640869
-0.0195313	-0.0479126	-0.0674438
-0.0222778	-0.0491333	-0.0714111
-0.0253296	-0.0494385	-0.0747681
-0.027771	-0.0488281	-0.0765991
-0.0299072	-0.0479126	-0.0778198
-0.0317383	-0.0460815	-0.0778198
-0.0332642	-0.0439453	-0.0772095
-0.0332642	-0.0427246	-0.0759888
-0.0320435	-0.0427246	-0.0747681
-0.0308228	-0.0430298	-0.0738525
-0.0299072	-0.043335	-0.0732422
-0.0289917	-0.043335	-0.0723267
-0.0280762	-0.043335	-0.0714111
-0.0283813	-0.0421143	-0.0704956
-0.0292969	-0.0405884	-0.0698853
-0.0296021	-0.0393677	-0.0689697
-0.0289917	-0.0387573	-0.067749
-0.0283813	-0.038147	-0.0665283
-0.0274658	-0.0375366	-0.0650024
-0.0253296	-0.0369263	-0.0622559
-0.0228882	-0.0369263	-0.0598145
-0.0210571	-0.0366211	-0.0576782
-0.0195313	-0.0372314	-0.0567627
-0.017395	-0.038147	-0.055542
-0.015564	-0.0390625	-0.0546265
-0.0146484	-0.0396729	-0.0543213
-0.015564	-0.039978	-0.055542
-0.0164795	-0.039978	-0.0564575
-0.0167847	-0.039978	-0.0567627
-0.0170898	-0.0393677	-0.0564575
-0.0177002	-0.0378418	-0.055542
-0.0180054	-0.0354004	-0.0534058
-0.0180054	-0.0317383	-0.0497437
-0.0177002	-0.0271606	-0.0448608
-0.0186157	-0.0210571	-0.0396729
-0.020752	-0.0134277	-0.0341797
-0.0234985	-0.00427246	-0.027771
-0.0265503	0.00610352	-0.0204468
-0.0296021	0.0167847	-0.0128174
-0.0320435	0.0262451	-0.00579834
-0.0323486	0.0326538	0.000305176
-0.0308228	0.0372314	0.00640869
-0.027771	0.0408936	0.0131226
-0.0228882	0.0445557	0.0216675
-0.0180054	0.0488281	0.0308228
-0.0137329	0.0540161	0.0402832
-0.0100708	0.0604248	0.050354
-0.00701904	0.0686646	0.0616455
-0.00579834	0.0793457	0.0735474
-0.00762939	0.0921631	0.0845337
-0.012207	0.107117	0.0949097
-0.0189209	0.122375	0.103455
-0.0256348	0.135803	0.110168
-0.0314331	0.146484	0.115051
-0.0360107	0.152893	0.116882
-0.0387573	0.153809	0.115051
-0.0390625	0.149536	0.110474
-0.0375366	0.141602	0.104065
-0.0350952	0.130615	0.09552
-0.0314331	0.116882	0.0854492
-0.0271606	0.101929	0.0747681
-0.0231934	0.0869751	0.0637817
-0.020752	0.0720215	0.0512695
-0.0195313	0.0564575	0.0369263
-0.0189209	0.0411987	0.0222778
-0.0189209	0.0259399	0.00701904
-0.0198364	0.0109863	-0.0088501
-0.0201416	-0.00366211	-0.0238037
-0.020752	-0.0170898	-0.0378418
-0.0216675	-0.0289917	-0.0506592
-0.0219727	-0.0405884	-0.062561
-0.0222778	-0.0512695	-0.0735474
-0.0231934	-0.0604248	-0.0836182
-0.0250244	-0.067749	-0.0927734
-0.0265503	-0.0726318	-0.0991821
-0.0268555	-0.0756836	-0.102539
-0.0271606	-0.0769043	-0.104065
-0.027771	-0.0778198	-0.105591
-0.0280762	-0.0787354	-0.106812
-0.0271606	-0.0799561	-0.107117
-0.0250244	-0.0820923	-0.107117
-0.0228882	-0.0848389	-0.107727
-0.0201416	-0.0900269	-0.110168
-0.0167847	-0.0979614	-0.114746
-0.0128174	-0.108948	-0.121765
-0.00823975	-0.12207	-0.13031
-0.00335693	-0.136108	-0.139465
0.000915527	-0.1474	-0.146484
0.00488281	-0.153809	-0.148926
0.0100708	-0.155029	-0.144958
0.0180054	-0.148926	-0.13092
0.027771	-0.132446	-0.104675
0.0387573	-0.103149	-0.0643921
0.0500488	-0.0601196	-0.0100708
0.062561	-0.00305176	0.0595093
0.0762939	0.0689697	0.145264
0.0891113	0.15564	0.244751
0.101013	0.254822	0.355835
0.11322	0.359192	0.472412
0.127258	0.460205	0.587463
0.142822	0.551758	0.69458
0.157471	0.629272	0.786743
0.170288	0.686951	0.857239
0.180664	0.718689	0.899353
0.186462	0.71991	0.906372
0.185547	0.691223	0.87677
0.176697	0.635071	0.811768
0.159607	0.554199	0.713806
0.135193	0.455017	0.59021
0.104675	0.345154	0.449829
0.0701904	0.233765	0.303955
0.03479	0.128479	0.163269
0.00213623	0.0354004	0.0375366
-0.0256348	-0.0405884	-0.0662231
-0.0466919	-0.0970459	-0.143738
-0.0601196	-0.133667	-0.193787
-0.0643921	-0.152893	-0.217285
-0.0610352	-0.158386	-0.219421
-0.0512695	-0.154419	-0.205688
-0.038147	-0.144958	-0.183105
-0.0250244	-0.132751	-0.157776
-0.0143433	-0.120239	-0.134583
-0.00823975	-0.109558	-0.117798
-0.00549316	-0.101929	-0.107422
-0.00518799	-0.0979614	-0.103149
-0.00671387	-0.0976563	-0.10437
-0.00946045	-0.0997925	-0.109253
-0.0134277	-0.103149	-0.116577
-0.017395	-0.106506	-0.123901
-0.0210571	-0.108948	-0.130005
-0.0241089	-0.110474	-0.134583
-0.0247192	-0.112	-0.136719
-0.0234985	-0.11322	-0.136719
-0.0213623	-0.113831	-0.135193
-0.0204468	-0.113525	-0.133972
-0.0195313	-0.112915	-0.132446
-0.0180054	-0.112305	-0.13031
-0.015564	-0.111694	-0.127258
-0.0134277	-0.111389	-0.124817
-0.0115967	-0.111084	-0.122681
-0.00976563	-0.110474	-0.120239
-0.00762939	-0.109558	-0.117188
-0.00488281	-0.108948	-0.113831
-0.00244141	-0.108032	-0.110474
-0.000610352	-0.107117	-0.107727
0.00152588	-0.106812	-0.105286
0.00396729	-0.106812	-0.102844
0.00579834	-0.106506	-0.100708
0.00762939	-0.106201	-0.0985718
0.00976563	-0.106201	-0.0964355
0.0112915	-0.105896	-0.0946045
0.0112915	-0.105286	-0.0939941
0.00976563	-0.10376	-0.0939941
0.00732422	-0.102234	-0.0949097
0.00610352	-0.101013	-0.0949097
0.00579834	-0.100098	-0.0942993
0.00549316	-0.0982666	-0.0927734
0.00518799	-0.0958252	-0.0906372
0.00579834	-0.0933838	-0.0875854
0.00732422	-0.0909424	-0.0836182
0.00854492	-0.0888062	-0.0802612
0.00976563	-0.0869751	-0.0772095
0.010376	-0.0848389	-0.0744629
0.0106812	-0.0823975	-0.0717163
0.0109863	-0.0799561	-0.0689697
0.0115967	-0.0790405	-0.0674438
0.0119019	-0.0784302	-0.0665283
0.0119019	-0.0784302	-0.0665283
0.010376	-0.078125	-0.067749
0.00762939	-0.0778198	-0.0701904
0.00549316	-0.0778198	-0.0723267
0.00488281	-0.0784302	-0.0735474
0.00457764	-0.0784302	-0.0738525
0.00427246	-0.0775146	-0.0732422
0.00457764	-0.0762939	-0.0717163
0.00518799	-0.0753784	-0.0701904
0.00640869	-0.0747681	-0.0683594
0.00762939	-0.0741577	-0.0665283
0.00915527	-0.0735474	-0.0643921
0.0112915	-0.0735474	-0.0622559
0.0143433	-0.0741577	-0.0598145
0.0177002	-0.0753784	-0.0576782
0.0210571	-0.0765991	-0.055542
0.0241089	-0.0772095	-0.0531006
0.0262451	-0.0769043	-0.0506592
0.0280762	-0.0756836	-0.0476074
0.0296021	-0.0741577	-0.0445557
0.0308228	-0.0726318	-0.0418091
0.0311279	-0.0714111	-0.0402832
0.0311279	-0.0708008	-0.0396729
0.0308228	-0.0695801	-0.0387573
0.0308228	-0.0680542	-0.0372314
0.0311279	-0.067749	-0.0366211
0.0326538	-0.0689697	-0.0363159
0.0357056	-0.0717163	-0.0360107
0.0405884	-0.0753784	-0.03479
0.0457764	-0.0793457	-0.0335693
0.0497437	-0.0823975	-0.0326538
0.0534058	-0.0845337	-0.0311279
0.0576782	-0.0866699	-0.0289917
0.0619507	-0.088501	-0.0265503
0.0646973	-0.0894165	-0.0247192
0.0665283	-0.0897217	-0.0231934
0.0674438	-0.0891113	-0.0216675
0.0671387	-0.0872803	-0.0201416
0.0653076	-0.0848389	-0.0195313
0.0631714	-0.0827026	-0.0195313
0.0616455	-0.0811768	-0.0195313
0.0601196	-0.0802612	-0.0201416
0.0604248	-0.0802612	-0.0198364
0.0622559	-0.0817871	-0.0195313
0.0653076	-0.0836182	-0.0183105
0.0689697	-0.0854492	-0.0164795
0.072937	-0.0875854	-0.0146484
0.0769043	-0.0894165	-0.0125122
0.0799561	-0.090332	-0.010376
0.0820923	-0.0906372	-0.00854492
0.083313	-0.0897217	-0.00640869
0.083313	-0.0878906	-0.00457764
0.0823975	-0.0860596	-0.00366211
0.0805664	-0.083313	-0.00274658
0.0778198	-0.0805664	-0.00274658
0.0741577	-0.0775146	-0.00335693
0.0701904	-0.0741577	-0.00396729
0.0656128	-0.0704956	-0.00488281
0.0619507	-0.0671387	-0.00518799
0.0598145	-0.0650024	-0.00518799
0.0592041	-0.0640869	-0.00488281
0.0582886	-0.0634766	-0.00518799
0.0570679	-0.062561	-0.00549316
0.0546265	-0.0610352	-0.00640869
0.0500488	-0.0585938	-0.00854492
0.0439453	-0.0552368	-0.0112915
0.0369263	-0.0515747	-0.0146484
0.0296021	-0.0479126	-0.0183105
0.0213623	-0.0442505	-0.0228882
0.0109863	-0.0393677	-0.0283813
-0.000305176	-0.0332642	-0.0335693
-0.010376	-0.0271606	-0.0375366
-0.0189209	-0.0216675	-0.0405884
-0.0250244	-0.0170898	-0.0421143
-0.0289917	-0.0137329	-0.0427246
-0.0311279	-0.0119019	-0.0430298
-0.0323486	-0.0109863	-0.043335
-0.0332642	-0.0109863	-0.0442505
-0.032959	-0.0115967	-0.0445557
-0.0317383	-0.0128174	-0.0445557
-0.0314331	-0.0137329	-0.045166
-0.0317383	-0.0140381	-0.0457764
-0.0326538	-0.0146484	-0.0473022
-0.0338745	-0.0143433	-0.0482178
-0.0360107	-0.0131226	-0.0491333
-0.0384521	-0.012207	-0.0506592
-0.039978	-0.0115967	-0.0515747
-0.0408936	-0.0109863	-0.0518799
-0.0411987	-0.0106812	-0.0518799
-0.0411987	-0.00976563	-0.0509644
-0.0405884	-0.00946045	-0.0500488
-0.039978	-0.00915527	-0.0491333
-0.0396729	-0.0088501	-0.0485229
-0.0393677	-0.00854492	-0.0479126
-0.0396729	-0.00793457	-0.0476074
-0.0396729	-0.00671387	-0.0463867
-0.0402832	-0.00518799	-0.0454712
-0.0411987	-0.00366211	-0.0448608
-0.0418091	-0.00274658	-0.0445557
-0.0421143	-0.00244141	-0.0445557
-0.0421143	-0.00274658	-0.0448608
-0.0408936	-0.00427246	-0.045166
-0.039978	-0.00579834	-0.0457764
-0.0384521	-0.00701904	-0.0454712
-0.0360107	-0.0088501	-0.0448608
-0.0326538	-0.0119019	-0.0445557
-0.0292969	-0.015564	-0.0448608
-0.0268555	-0.0186157	-0.0454712
-0.0256348	-0.0210571	-0.0466919
-0.0250244	-0.022583	-0.0476074
-0.0238037	-0.0234985	-0.0473022
-0.022583	-0.0244141	-0.0469971
-0.0216675	-0.0253296	-0.0469971
-0.0216675	-0.0256348	-0.0473022
-0.022583	-0.0250244	-0.0476074
-0.0238037	-0.0238037	-0.0476074
-0.0244141	-0.022583	-0.0469971
-0.0256348	-0.0216675	-0.0473022
-0.0274658	-0.020752	-0.0482178
-0.0296021	-0.0201416	-0.0497437
-0.0314331	-0.0192261	-0.0506592
-0.032959	-0.0180054	-0.0509644
-0.0338745	-0.0164795	-0.050354
-0.0335693	-0.015564	-0.0491333
-0.0314331	-0.015564	-0.0469971
-0.0296021	-0.015564	-0.045166
-0.027771	-0.0146484	-0.0424194
-0.0247192	-0.0146484	-0.0393677
-0.0204468	-0.0149536	-0.0354004
-0.0164795	-0.0152588	-0.0317383
-0.0140381	-0.015564	-0.0296021
-0.0140381	-0.0158691	-0.0299072
-0.015564	-0.015564	-0.0311279
-0.0183105	-0.0149536	-0.0332642
-0.0213623	-0.0140381	-0.0354004
-0.0244141	-0.0125122	-0.0369263
-0.0274658	-0.0100708	-0.0375366
-0.0305176	-0.00793457	-0.0384521
-0.0332642	-0.00579834	-0.0390625
-0.0344849	-0.00396729	-0.0384521
-0.0338745	-0.00244141	-0.0363159
-0.0314331	-0.00183105	-0.0332642
-0.0280762	-0.00183105	-0.0299072
-0.0250244	-0.00183105	-0.0268555
-0.022583	-0.00183105	-0.0244141
-0.0204468	-0.000915527	-0.0213623
-0.0195313	0.000610352	-0.0189209
-0.0198364	0.00274658	-0.0170898
-0.0204468	0.00518799	-0.0152588
-0.020752	0.00823975	-0.0125122
-0.020752	0.0115967	-0.00915527
-0.0210571	0.0149536	-0.00610352
-0.022583	0.0183105	-0.00427246
-0.0238037	0.0213623	-0.00244141
-0.0244141	0.0228882	-0.00152588
-0.0234985	0.022583	-0.000915527
-0.0213623	0.0213623	0
-0.0198364	0.0195313	-0.000305176
-0.0183105	0.0180054	-0.000305176
-0.0180054	0.0177002	-0.000305176
-0.0186157	0.0189209	0.000305176
-0.0192261	0.020752	0.00152588
-0.0192261	0.0216675	0.00244141
-0.0192261	0.0219727	0.00274658
-0.0189209	0.0228882	0.00396729
-0.0198364	0.0241089	0.00427246
-0.0213623	0.0259399	0.00457764
-0.0228882	0.027771	0.00488281
-0.0234985	0.0286865	0.00518799
-0.0241089	0.0286865	0.00457764
-0.0247192	0.0280762	0.00335693
-0.0250244	0.0268555	0.00183105
-0.0241089	0.0247192	0.000610352
-0.022583	0.0222778	-0.000305176
-0.0216675	0.0204468	-0.0012207
-0.0204468	0.0186157	-0.00183105
-0.0183105	0.0164795	-0.00183105
-0.0161743	0.0146484	-0.00152588
-0.0137329	0.012207	-0.00152588
-0.0106812	0.00915527	-0.00152588
-0.00762939	0.00640869	-0.0012207
-0.00579834	0.00457764	-0.0012207
-0.00457764	0.00366211	-0.000915527
-0.00427246	0.00457764	0.000305176
-0.00488281	0.00640869	0.00152588
-0.00579834	0.00915527	0.00335693
-0.00701904	0.0125122	0.00549316
-0.00946045	0.0164795	0.00701904
-0.0128174	0.0204468	0.00762939
-0.0158691	0.0234985	0.00762939
-0.0177002	0.0253296	0.00762939
-0.0186157	0.0265503	0.00793457
-0.0189209	0.0274658	0.00854492
-0.0180054	0.0280762	0.0100708
-0.015564	0.0274658	0.0119019
-0.0128174	0.0256348	0.0128174
-0.0115967	0.0231934	0.0115967
-0.0112915	0.0216675	0.010376
-0.0109863	0.0210571	0.0100708
-0.0112915	0.0219727	0.0106812
-0.012207	0.0234985	0.0112915
-0.0134277	0.0250244	0.0115967
-0.0143433	0.0259399	0.0115967
-0.0161743	0.0274658	0.0112915
-0.0183105	0.0286865	0.010376
-0.0189209	0.0286865	0.00976563
-0.0177002	0.027771	0.0100708
-0.0152588	0.0262451	0.0109863
-0.0119019	0.0241089	0.012207
-0.00793457	0.0213623	0.0134277
-0.00457764	0.0186157	0.0140381
-0.00305176	0.0170898	0.0140381
-0.00335693	0.0167847	0.0134277
-0.00396729	0.0170898	0.0131226
-0.00427246	0.0186157	0.0143433
-0.00488281	0.0216675	0.0167847
-0.00579834	0.0268555	0.0210571
-0.00701904	0.0332642	0.0262451
-0.00762939	0.0402832	0.0326538
-0.00732422	0.0473022	0.039978
-0.00671387	0.0549316	0.0482178
-0.00579834	0.0628662	0.0570679
-0.00518799	0.0695801	0.0643921
-0.00427246	0.0747681	0.0704956
-0.00366211	0.0790405	0.0753784
-0.00396729	0.0830078	0.0790405
-0.00518799	0.0881958	0.0830078
-0.00640869	0.0942993	0.0878906
-0.0088501	0.101318	0.0924683
-0.0112915	0.109558	0.0982666
-0.0128174	0.119019	0.106201
-0.0137329	0.1297	0.115967
-0.0134277	0.141296	0.127869
-0.0125122	0.154114	0.141602
-0.0115967	0.167236	0.15564
-0.0109863	0.180359	0.169373
-0.0106812	0.191956	0.181274
-0.00976563	0.2005	0.190735
-0.00732422	0.205994	0.198669
-0.00396729	0.207214	0.203247
0.000610352	0.204773	0.205383
0.00366211	0.19928	0.202942
0.00396729	0.191345	0.195313
0.00274658	0.181274	0.184021
0.00183105	0.169678	0.171509
0.000610352	0.157166	0.157776
-0.0012207	0.144653	0.143433
-0.00457764	0.131531	0.126953
-0.0088501	0.117798	0.108948
-0.0140381	0.10437	0.090332
-0.0201416	0.0915527	0.0714111
-0.0244141	0.0784302	0.0540161
-0.0259399	0.0646973	0.0387573
-0.0256348	0.050354	0.0247192
-0.0241089	0.0360107	0.0119019
-0.0222778	0.022583	0.000305176
-0.0201416	0.010376	-0.00976563
-0.0170898	-0.000915527	-0.0180054
-0.0131226	-0.0106812	-0.0238037
-0.00976563	-0.0192261	-0.0289917
-0.0088501	-0.0253296	-0.0341797
-0.0100708	-0.0286865	-0.0387573
-0.0119019	-0.0289917	-0.0408936
-0.0134277	-0.0283813	-0.0418091
-0.0143433	-0.0283813	-0.0427246
-0.0143433	-0.0302124	-0.0445557
-0.0137329	-0.0341797	-0.0479126
-0.0119019	-0.0411987	-0.0531006
-0.00854492	-0.0512695	-0.0598145
-0.00427246	-0.0631714	-0.0674438
0.0012207	-0.0738525	-0.0726318
0.00732422	-0.0814819	-0.0741577
0.0146484	-0.0848389	-0.0701904
0.0213623	-0.0808716	-0.0595093
0.027771	-0.0680542	-0.0402832
0.0338745	-0.0436401	-0.00976563
0.0402832	-0.00579834	0.0344849
0.0466919	0.0454712	0.0921631
0.0521851	0.109558	0.161743
0.0570679	0.185852	0.24292
0.0616455	0.272522	0.334167
0.0674438	0.365601	0.433044
0.0778198	0.456848	0.534668
0.0918579	0.53894	0.630798
0.107422	0.608826	0.716248
0.123901	0.663147	0.787048
0.139771	0.699768	0.839539
0.154419	0.714111	0.86853
0.164795	0.70282	0.867615
0.167847	0.666199	0.834045
0.161133	0.608215	0.769348
0.144653	0.533752	0.678406
0.119629	0.446167	0.565796
0.0891113	0.350647	0.439758
0.0552368	0.254822	0.310059
0.0201416	0.164185	0.184326
-0.0131226	0.0823975	0.0692749
-0.0411987	0.0125122	-0.0286865
-0.0613403	-0.0430298	-0.10437
-0.071106	-0.0830078	-0.154114
-0.0704956	-0.108643	-0.179138
-0.0610352	-0.122375	-0.183411
-0.045166	-0.126343	-0.171509
-0.0274658	-0.123291	-0.150757
-0.0109863	-0.114441	-0.125427
0.00152588	-0.101624	-0.100098
0.0100708	-0.0881958	-0.078125
0.0143433	-0.0765991	-0.0622559
0.0143433	-0.0680542	-0.0537109
0.0115967	-0.0622559	-0.0506592
0.00701904	-0.0588989	-0.0518799
0.00213623	-0.0585938	-0.0564575
-0.0012207	-0.06073	-0.0619507
-0.00396729	-0.0646973	-0.0686646
-0.00579834	-0.0689697	-0.0747681
-0.00640869	-0.072937	-0.0793457
-0.00518799	-0.0759888	-0.0811768
-0.00274658	-0.078125	-0.0808716
-0.000610352	-0.0787354	-0.0793457
0.000610352	-0.0784302	-0.0778198
0.000915527	-0.0775146	-0.0765991
0.0012207	-0.0765991	-0.0753784
0.0012207	-0.0753784	-0.0741577
0.000915527	-0.0735474	-0.0726318
0.000610352	-0.0717163	-0.071106
0.000915527	-0.0704956	-0.0695801
0.00244141	-0.0704956	-0.0680542
0.00457764	-0.071106	-0.0665283
0.00701904	-0.0723267	-0.0653076
0.00946045	-0.0738525	-0.0643921
0.0115967	-0.0744629	-0.0628662
0.0131226	-0.0744629	-0.0613403
0.0146484	-0.0738525	-0.0592041
0.0158691	-0.0732422	-0.057373
0.0158691	-0.0732422	-0.057373
0.0152588	-0.072937	-0.0576782
0.0143433	-0.0726318	-0.0582886
0.0137329	-0.0720215	-0.0582886
0.0134277	-0.0717163	-0.0582886
0.0128174	-0.0717163	-0.0588989
0.0131226	-0.0717163	-0.0585938
0.0140381	-0.0717163	-0.0576782
0.0152588	-0.0720215	-0.0567627
0.015564	-0.0720215	-0.0564575
0.0152588	-0.0720215	-0.0567627
0.0152588	-0.0726318	-0.057373
0.0158691	-0.072937	-0.0570679
0.015564	-0.0726318	-0.0570679
0.0146484	-0.0714111	-0.0567627
0.0143433	-0.0708008	-0.0564575
0.0149536	-0.0708008	-0.0558472
0.0164795	-0.0717163	-0.0552368
0.0186157	-0.072937	-0.0543213
0.0210571	-0.0738525	-0.0527954
0.0234985	-0.0744629	-0.0509644
0.0259399	-0.0753784	-0.0494385
0.0280762	-0.0762939	-0.0482178
0.0308228	-0.0772095	-0.0463867
0.0341797	-0.0784302	-0.0442505
0.0366211	-0.0799561	-0.043335
0.0372314	-0.0808716	-0.0436401
0.0363159	-0.0802612	-0.0439453
0.03479	-0.078125	-0.043335
0.0335693	-0.0759888	-0.0424194
0.0335693	-0.0744629	-0.0408936
0.032959	-0.0732422	-0.0402832
0.0320435	-0.0726318	-0.0405884
0.0323486	-0.0726318	-0.0402832
0.0338745	-0.0732422	-0.0393677
0.0360107	-0.0735474	-0.0375366
0.0387573	-0.0744629	-0.0357056
0.0421143	-0.0750732	-0.032959
0.045166	-0.0753784	-0.0302124
0.0485229	-0.0750732	-0.0265503
0.0524902	-0.0750732	-0.022583
0.0564575	-0.0753784	-0.0189209
0.0601196	-0.0747681	-0.0146484
0.0631714	-0.0732422	-0.0100708
0.0653076	-0.0714111	-0.00610352
0.065918	-0.0701904	-0.00427246
0.0656128	-0.0692749	-0.00366211
0.065918	-0.0692749	-0.00335693
0.0674438	-0.0714111	-0.00396729
0.0695801	-0.0741577	-0.00457764
0.0708008	-0.0769043	-0.00610352
0.071106	-0.0790405	-0.00793457
0.0717163	-0.0808716	-0.00915527
0.0726318	-0.0827026	-0.0100708
0.0741577	-0.0848389	-0.0106812
0.0762939	-0.0869751	-0.0106812
0.078125	-0.0891113	-0.0109863
0.0799561	-0.0909424	-0.0109863
0.0820923	-0.0927734	-0.0106812
0.0848389	-0.0946045	-0.00976563
0.0875854	-0.0970459	-0.00946045
0.0897217	-0.0994873	-0.00976563
0.0912476	-0.101929	-0.0106812
0.0930786	-0.104065	-0.0109863
0.09552	-0.105286	-0.00976563
0.0979614	-0.105896	-0.00793457
0.0985718	-0.106201	-0.00762939
0.0979614	-0.105591	-0.00762939
0.0976563	-0.10498	-0.00732422
0.0976563	-0.10437	-0.00671387
0.0970459	-0.102844	-0.00579834
0.0949097	-0.101013	-0.00610352
0.0915527	-0.0985718	-0.00701904
0.0878906	-0.0961304	-0.00823975
0.0839233	-0.093689	-0.00976563
0.0793457	-0.0912476	-0.0119019
0.0753784	-0.0881958	-0.0128174
0.0714111	-0.0848389	-0.0134277
0.0674438	-0.0808716	-0.0134277
0.0640869	-0.0759888	-0.0119019
0.0610352	-0.0704956	-0.00946045
0.0579834	-0.0646973	-0.00671387
0.055542	-0.0592041	-0.00366211
0.0531006	-0.0537109	-0.000610352
0.0494385	-0.0482178	0.0012207
0.0448608	-0.0430298	0.00183105
0.0390625	-0.038147	0.000915527
0.0320435	-0.0335693	-0.00152588
0.0241089	-0.0292969	-0.00518799
0.0161743	-0.0259399	-0.00976563
0.00823975	-0.0241089	-0.0158691
0.000915527	-0.0228882	-0.0219727
-0.00579834	-0.0216675	-0.0274658
-0.0109863	-0.0213623	-0.0323486
-0.0140381	-0.0222778	-0.0363159
-0.0158691	-0.0231934	-0.0390625
-0.0167847	-0.0241089	-0.0408936
-0.0164795	-0.0256348	-0.0421143
-0.0152588	-0.027771	-0.0430298
-0.0146484	-0.0299072	-0.0445557
-0.0143433	-0.0320435	-0.0463867
-0.0140381	-0.0335693	-0.0476074
-0.0146484	-0.03479	-0.0494385
-0.0161743	-0.0354004	-0.0515747
-0.0180054	-0.0363159	-0.0543213
-0.0210571	-0.0369263	-0.0579834
-0.0253296	-0.0372314	-0.062561
-0.0292969	-0.0366211	-0.065918
-0.0332642	-0.0354004	-0.0686646
-0.0372314	-0.0335693	-0.0708008
-0.0408936	-0.0314331	-0.0723267
-0.0427246	-0.0302124	-0.072937
-0.0427246	-0.0296021	-0.0723267
-0.0415039	-0.0296021	-0.071106
-0.0393677	-0.0296021	-0.0689697
-0.0369263	-0.0289917	-0.065918
-0.0341797	-0.0280762	-0.0622559
-0.0311279	-0.027771	-0.0588989
-0.0283813	-0.027771	-0.0561523
-0.0253296	-0.0283813	-0.0537109
-0.022583	-0.0289917	-0.0515747
-0.0213623	-0.0289917	-0.050354
-0.0213623	-0.0289917	-0.050354
-0.022583	-0.0289917	-0.0515747
-0.0234985	-0.0296021	-0.0531006
-0.0244141	-0.0302124	-0.0546265
-0.0247192	-0.0314331	-0.0561523
-0.0250244	-0.032959	-0.0579834
-0.0253296	-0.0341797	-0.0595093
-0.0250244	-0.0344849	-0.0595093
-0.0241089	-0.0341797	-0.0582886
-0.0234985	-0.0335693	-0.0570679
-0.0231934	-0.0332642	-0.0564575
-0.022583	-0.032959	-0.055542
-0.0222778	-0.0320435	-0.0543213
-0.022583	-0.0311279	-0.0537109
-0.0234985	-0.0305176	-0.0540161
-0.0250244	-0.0308228	-0.0558472
-0.0259399	-0.0317383	-0.0576782
-0.0268555	-0.032959	-0.0598145
-0.0283813	-0.0332642	-0.0616455
-0.0296021	-0.0332642	-0.0628662
-0.0305176	-0.032959	-0.0634766
-0.0308228	-0.032959	-0.0637817
-0.0311279	-0.0326538	-0.0637817
-0.0311279	-0.0326538	-0.0637817
-0.0308228	-0.0326538	-0.0634766
-0.0308228	-0.0326538	-0.0634766
-0.0308228	-0.032959	-0.0637817
-0.0299072	-0.0341797	-0.0640869
-0.0289917	-0.0360107	-0.0650024
-0.0280762	-0.038147	-0.0662231
-0.0271606	-0.0405884	-0.067749
-0.0262451	-0.0427246	-0.0689697
-0.0250244	-0.0442505	-0.0692749
-0.0244141	-0.0448608	-0.0692749
-0.0241089	-0.0442505	-0.0683594
-0.0238037	-0.0430298	-0.0668335
-0.0222778	-0.0418091	-0.0640869
-0.020752	-0.0396729	-0.0604248
-0.0195313	-0.0369263	-0.0564575
-0.0186157	-0.0338745	-0.0524902
-0.0183105	-0.0311279	-0.0494385
-0.017395	-0.0289917	-0.0463867
-0.015564	-0.0280762	-0.0436401
-0.0128174	-0.0283813	-0.0411987
-0.0106812	-0.0286865	-0.0393677
-0.00976563	-0.0286865	-0.0384521
-0.00946045	-0.0286865	-0.038147
-0.00946045	-0.0283813	-0.0378418
-0.0100708	-0.0280762	-0.038147
-0.0106812	-0.0283813	-0.0390625
-0.0106812	-0.0299072	-0.0405884
-0.010376	-0.0320435	-0.0424194
-0.010376	-0.0335693	-0.0439453
-0.010376	-0.03479	-0.045166
-0.010376	-0.0360107	-0.0463867
-0.0100708	-0.0372314	-0.0473022
-0.00946045	-0.0390625	-0.0485229
-0.00946045	-0.0408936	-0.050354
-0.010376	-0.0424194	-0.0527954
-0.0115967	-0.043335	-0.0549316
-0.0128174	-0.0427246	-0.055542
-0.0143433	-0.0405884	-0.0549316
-0.0167847	-0.0369263	-0.0537109
-0.0192261	-0.0332642	-0.0524902
-0.0213623	-0.0299072	-0.0512695
-0.022583	-0.0274658	-0.0500488
-0.0222778	-0.0259399	-0.0482178
-0.020752	-0.0256348	-0.0463867
-0.0186157	-0.0256348	-0.0442505
-0.0158691	-0.0259399	-0.0418091
-0.0137329	-0.0274658	-0.0411987
-0.0119019	-0.0302124	-0.0421143
-0.0115967	-0.0332642	-0.0448608
-0.0112915	-0.0357056	-0.0469971
-0.0112915	-0.0369263	-0.0482178
-0.0115967	-0.0369263	-0.0485229
-0.012207	-0.0363159	-0.0485229
-0.0137329	-0.0350952	-0.0488281
-0.0152588	-0.0332642	-0.0485229
-0.0161743	-0.0311279	-0.0473022
-0.0170898	-0.0289917	-0.0460815
-0.0177002	-0.0274658	-0.045166
-0.0180054	-0.0259399	-0.0439453
-0.0180054	-0.0250244	-0.0430298
-0.0189209	-0.0247192	-0.0436401
-0.020752	-0.0241089	-0.0448608
-0.0228882	-0.0234985	-0.0463867
-0.0241089	-0.0238037	-0.0479126
-0.0247192	-0.0244141	-0.0491333
-0.0253296	-0.0250244	-0.050354
-0.0253296	-0.0256348	-0.0509644
-0.0247192	-0.0262451	-0.0509644
-0.0231934	-0.0274658	-0.0506592
-0.020752	-0.0296021	-0.050354
-0.0180054	-0.0320435	-0.0500488
-0.0152588	-0.0341797	-0.0494385
-0.012207	-0.0363159	-0.0485229
-0.00915527	-0.038147	-0.0473022
-0.00701904	-0.039978	-0.0469971
-0.00640869	-0.0408936	-0.0473022
-0.00640869	-0.0415039	-0.0479126
-0.00640869	-0.0415039	-0.0479126
-0.00732422	-0.0408936	-0.0482178
-0.00793457	-0.039978	-0.0479126
-0.00793457	-0.0390625	-0.0469971
-0.00701904	-0.0390625	-0.0460815
-0.00640869	-0.0387573	-0.045166
-0.00610352	-0.0384521	-0.0445557
-0.00701904	-0.0375366	-0.0445557
-0.00854492	-0.0360107	-0.0445557
-0.00946045	-0.0350952	-0.0445557
-0.0088501	-0.0350952	-0.0439453
-0.00701904	-0.0366211	-0.0436401
-0.00549316	-0.0384521	-0.0439453
-0.00457764	-0.0402832	-0.0448608
-0.00396729	-0.0418091	-0.0457764
-0.00396729	-0.0439453	-0.0479126
-0.00366211	-0.0457764	-0.0494385
-0.00366211	-0.0469971	-0.0506592
-0.00335693	-0.0469971	-0.050354
-0.00305176	-0.0460815	-0.0491333
-0.00305176	-0.0427246	-0.0457764
-0.00427246	-0.0366211	-0.0408936
-0.00579834	-0.0286865	-0.0344849
-0.00823975	-0.0189209	-0.0271606
-0.010376	-0.00762939	-0.0180054
-0.0112915	0.00457764	-0.00671387
-0.0115967	0.0167847	0.00518799
-0.0109863	0.0274658	0.0164795
-0.00976563	0.0363159	0.0265503
-0.00823975	0.0430298	0.03479
-0.00671387	0.0488281	0.0421143
-0.00457764	0.0534058	0.0488281
-0.00244141	0.057373	0.0549316
-0.00244141	0.0619507	0.0595093
-0.00335693	0.067749	0.0643921
-0.00335693	0.0747681	0.0714111
-0.00366211	0.0836182	0.0799561
-0.00488281	0.0946045	0.0897217
-0.00732422	0.107422	0.100098
-0.010376	0.120544	0.110168
-0.0119019	0.133057	0.121155
-0.0115967	0.143738	0.132141
-0.00976563	0.151978	0.142212
-0.00701904	0.15686	0.149841
-0.00366211	0.15686	0.153198
-0.0012207	0.152893	0.151672
0.0012207	0.145264	0.146484
0.00335693	0.135498	0.138855
0.00427246	0.124207	0.128479
0.00366211	0.111389	0.115051
0.00213623	0.0979614	0.100098
-0.000915527	0.0842285	0.083313
-0.00488281	0.0695801	0.0646973
-0.00854492	0.0537109	0.045166
-0.0119019	0.038147	0.0262451
-0.0149536	0.0219727	0.00701904
-0.0167847	0.00610352	-0.0106812
-0.017395	-0.00946045	-0.0268555
-0.0164795	-0.0238037	-0.0402832
-0.0137329	-0.0372314	-0.0509644
-0.010376	-0.0488281	-0.0592041
-0.00732422	-0.0585938	-0.065918
-0.00640869	-0.0653076	-0.0717163
-0.00640869	-0.0698853	-0.0762939
-0.00671387	-0.072937	-0.0796509
-0.00640869	-0.0744629	-0.0808716
-0.00640869	-0.0750732	-0.0814819
-0.00640869	-0.0753784	-0.0817871
-0.00640869	-0.0765991	-0.0830078
-0.00640869	-0.0799561	-0.0863647
-0.00518799	-0.0854492	-0.0906372
-0.00305176	-0.0930786	-0.0961304
0.000610352	-0.10376	-0.103149
0.00457764	-0.117188	-0.11261
0.0088501	-0.131531	-0.122681
0.0125122	-0.143738	-0.131226
0.0164795	-0.152283	-0.135803
0.0204468	-0.15564	-0.135193
0.0259399	-0.152588	-0.126648
0.032959	-0.140686	-0.107727
0.0408936	-0.117188	-0.0762939
0.0497437	-0.0802612	-0.0305176
0.0598145	-0.0305176	0.0292969
0.0717163	0.0332642	0.10498
0.0845337	0.111084	0.195618
0.0973511	0.202637	0.299988
0.109863	0.303955	0.413818
0.123596	0.406189	0.529785
0.138855	0.503235	0.64209
0.153503	0.59021	0.743713
0.167542	0.661316	0.828857
0.179138	0.710754	0.889893
0.188293	0.732422	0.920715
0.192566	0.724182	0.916748
0.188904	0.686035	0.874939
0.176697	0.620728	0.797424
0.157166	0.531616	0.688782
0.132141	0.425415	0.557556
0.102234	0.311279	0.413513
0.0704956	0.197144	0.267639
0.0387573	0.0921631	0.13092
0.00915527	0.00244141	0.0115967
-0.0158691	-0.0686646	-0.0845337
-0.0341797	-0.119324	-0.153503
-0.0445557	-0.150146	-0.194702
-0.0460815	-0.164185	-0.210266
-0.0405884	-0.165405	-0.205994
-0.0305176	-0.157471	-0.187988
-0.0183105	-0.144653	-0.162964
-0.00671387	-0.130005	-0.136719
0.00244141	-0.117188	-0.114746
0.0088501	-0.107727	-0.098877
0.012207	-0.102234	-0.0900269
0.0149536	-0.101013	-0.0860596
0.0167847	-0.102539	-0.0857544
0.017395	-0.106201	-0.0888062
0.0158691	-0.110474	-0.0946045
0.0134277	-0.114441	-0.101013
0.0119019	-0.116882	-0.10498
0.010376	-0.118408	-0.108032
0.00915527	-0.118713	-0.109558
0.00701904	-0.118713	-0.111694
0.00518799	-0.117493	-0.112305
0.00366211	-0.115662	-0.112
0.00244141	-0.11322	-0.110779
0.000915527	-0.111084	-0.110168
0.00152588	-0.110474	-0.108948
0.00335693	-0.110779	-0.107422
0.00579834	-0.110779	-0.10498
0.00854492	-0.110474	-0.101929
0.0119019	-0.110474	-0.0985718
0.0149536	-0.110474	-0.09552
0.017395	-0.111084	-0.093689
0.0189209	-0.111694	-0.0927734
0.0201416	-0.112	-0.0918579
0.0201416	-0.111389	-0.0912476
0.0192261	-0.111389	-0.0921631
0.017395	-0.111389	-0.0939941
0.0152588	-0.110779	-0.09552
0.0128174	-0.109863	-0.0970459
0.0109863	-0.109253	-0.0982666
0.0100708	-0.108948	-0.098877
0.010376	-0.109253	-0.098877
0.0112915	-0.109863	-0.0985718
0.0125122	-0.109558	-0.0970459
0.0137329	-0.109253	-0.09552
0.0158691	-0.108032	-0.0921631
0.017395	-0.106506	-0.0891113
0.0189209	-0.104675	-0.0857544
0.020752	-0.103455	-0.0827026
0.0222778	-0.102234	-0.0799561
0.0231934	-0.101318	-0.078125
0.0231934	-0.0994873	-0.0762939
0.0219727	-0.0967407	-0.0747681
0.0204468	-0.093689	-0.0732422
0.0198364	-0.0915527	-0.0717163
0.0192261	-0.090332	-0.071106
0.0189209	-0.0891113	-0.0701904
0.0189209	-0.0881958	-0.0692749
0.0195313	-0.0872803	-0.067749
0.0198364	-0.0863647	-0.0665283
0.0198364	-0.0845337	-0.0646973
0.0195313	-0.0823975	-0.0628662
0.0204468	-0.0808716	-0.0604248
0.0234985	-0.0808716	-0.057373
0.0280762	-0.0827026	-0.0546265
0.032959	-0.0854492	-0.0524902
0.0366211	-0.0866699	-0.0500488
0.0387573	-0.0872803	-0.0485229
0.0408936	-0.0878906	-0.0469971
0.043335	-0.0891113	-0.0457764
0.0457764	-0.0915527	-0.0457764
0.0479126	-0.0942993	-0.0463867
0.0485229	-0.0961304	-0.0476074
0.0476074	-0.0970459	-0.0494385
0.0463867	-0.0970459	-0.0506592
0.0454712	-0.0967407	-0.0512695
0.0457764	-0.0967407	-0.0509644
0.0463867	-0.0964355	-0.0500488
0.0476074	-0.0964355	-0.0488281
0.0500488	-0.0964355	-0.0463867
0.0527954	-0.0967407	-0.0439453
0.0570679	-0.0970459	-0.039978
0.0619507	-0.0970459	-0.0350952
0.0656128	-0.0970459	-0.0314331
0.0680542	-0.0973511	-0.0292969
0.0698853	-0.0973511	-0.0274658
0.0717163	-0.0979614	-0.0262451
0.0744629	-0.098877	-0.0244141
0.0772095	-0.100403	-0.0231934
0.0799561	-0.102234	-0.0222778
0.0823975	-0.104065	-0.0216675
0.0842285	-0.105591	-0.0213623
0.0860596	-0.107117	-0.0210571
0.0875854	-0.108948	-0.0213623
0.0897217	-0.110474	-0.020752
0.0918579	-0.111694	-0.0198364
0.0942993	-0.112915	-0.0186157
0.0964355	-0.114136	-0.0177002
0.0976563	-0.115356	-0.0177002
0.0970459	-0.115967	-0.0189209
0.0970459	-0.116272	-0.0192261
0.0985718	-0.117188	-0.0186157
0.101318	-0.118408	-0.0170898
0.10498	-0.120544	-0.015564
0.108032	-0.122986	-0.0149536
0.110474	-0.124817	-0.0143433
0.112915	-0.126343	-0.0134277
0.115662	-0.126953	-0.0112915
0.117798	-0.126953	-0.00915527
0.119019	-0.126648	-0.00762939
0.119019	-0.125427	-0.00640869
0.117493	-0.123291	-0.00579834
0.114136	-0.119934	-0.00579834
0.109863	-0.115356	-0.00549316
0.104675	-0.110168	-0.00549316
0.0994873	-0.10498	-0.00549316
0.0942993	-0.100403	-0.00610352
0.0891113	-0.0961304	-0.00701904
0.083313	-0.0915527	-0.00823975
0.0775146	-0.0872803	-0.00976563
0.0714111	-0.0836182	-0.012207
0.0656128	-0.0802612	-0.0146484
0.0595093	-0.0769043	-0.017395
0.0527954	-0.0735474	-0.020752
0.045166	-0.0698853	-0.0247192
0.0363159	-0.0662231	-0.0299072
0.0262451	-0.0622559	-0.0360107
0.0167847	-0.0582886	-0.0415039
0.00946045	-0.0549316	-0.0454712
0.00366211	-0.0521851	-0.0485229
-0.000305176	-0.0506592	-0.0509644
-0.00244141	-0.0509644	-0.0534058
-0.00183105	-0.0534058	-0.0552368
-0.000610352	-0.0564575	-0.0570679
0.000305176	-0.0592041	-0.0588989
0.00244141	-0.0619507	-0.0595093
0.00640869	-0.0653076	-0.0588989
0.0106812	-0.0692749	-0.0585938
0.0140381	-0.0720215	-0.0579834
0.0167847	-0.0744629	-0.0576782
0.0189209	-0.0765991	-0.0576782
0.0204468	-0.0784302	-0.0579834
0.0210571	-0.0790405	-0.0579834
0.020752	-0.0784302	-0.0576782
0.0204468	-0.0775146	-0.0570679
0.0195313	-0.0772095	-0.0576782
0.017395	-0.0765991	-0.0592041
0.0143433	-0.0756836	-0.0613403
0.0112915	-0.0747681	-0.0634766
0.00823975	-0.0747681	-0.0665283
0.00518799	-0.0753784	-0.0701904
0.00244141	-0.0756836	-0.0732422
0.000610352	-0.0759888	-0.0753784
0.000305176	-0.0762939	-0.0759888
0.000915527	-0.0772095	-0.0762939
0.00183105	-0.0787354	-0.0769043
0.00305176	-0.0793457	-0.0762939
0.00488281	-0.0793457	-0.0744629
0.00701904	-0.0787354	-0.0717163
0.00793457	-0.0772095	-0.0692749
0.00793457	-0.0747681	-0.0668335
0.00732422	-0.0723267	-0.0650024
0.00549316	-0.0695801	-0.0640869
0.00244141	-0.0668335	-0.0643921
-0.000915527	-0.0646973	-0.0656128
-0.00305176	-0.0631714	-0.0662231
-0.00457764	-0.0628662	-0.0674438
-0.00518799	-0.0631714	-0.0683594
-0.00518799	-0.0637817	-0.0689697
-0.00518799	-0.0653076	-0.0704956
-0.00549316	-0.0671387	-0.0726318
-0.00579834	-0.0686646	-0.0744629
-0.00427246	-0.0701904	-0.0744629
-0.00213623	-0.0714111	-0.0735474
0.000610352	-0.0726318	-0.0720215
0.00244141	-0.0726318	-0.0701904
0.00274658	-0.0714111	-0.0686646
0.00213623	-0.0692749	-0.0671387
0.00244141	-0.0671387	-0.0646973
0.00335693	-0.0653076	-0.0619507
0.00488281	-0.0640869	-0.0592041
0.00640869	-0.0634766	-0.0570679
0.00762939	-0.0631714	-0.055542
0.0088501	-0.0628662	-0.0540161
0.0106812	-0.062561	-0.0518799
0.012207	-0.0622559	-0.0500488
0.0131226	-0.0619507	-0.0488281
0.0134277	-0.0619507	-0.0485229
0.0134277	-0.0619507	-0.0485229
0.0131226	-0.0616455	-0.0485229
0.012207	-0.0604248	-0.0482178
0.0112915	-0.0582886	-0.0469971
0.00976563	-0.055542	-0.0457764
0.00671387	-0.0518799	-0.045166
0.00457764	-0.0494385	-0.0448608
0.00366211	-0.0479126	-0.0442505
0.00457764	-0.0473022	-0.0427246
0.00579834	-0.0476074	-0.0418091
0.00701904	-0.0482178	-0.0411987
0.00823975	-0.0485229	-0.0402832
0.0100708	-0.0497437	-0.0396729
0.0125122	-0.0521851	-0.0396729
0.0146484	-0.0549316	-0.0402832
0.015564	-0.057373	-0.0418091
0.0161743	-0.0595093	-0.043335
0.015564	-0.06073	-0.045166
0.0134277	-0.06073	-0.0473022
0.0100708	-0.0592041	-0.0491333
0.00701904	-0.0570679	-0.0500488
0.00457764	-0.0546265	-0.0500488
0.00213623	-0.0524902	-0.050354
0	-0.0497437	-0.0497437
-0.00152588	-0.0469971	-0.0485229
-0.00183105	-0.0448608	-0.0466919
0.000305176	-0.0439453	-0.0436401
0.00335693	-0.0442505	-0.0408936
0.00610352	-0.0448608	-0.0387573
0.00854492	-0.0454712	-0.0369263
0.0106812	-0.0457764	-0.0350952
0.0125122	-0.0454712	-0.032959
0.0131226	-0.0445557	-0.0314331
0.0119019	-0.043335	-0.0314331
0.00976563	-0.0421143	-0.0323486
0.00823975	-0.0405884	-0.0323486
0.00610352	-0.0396729	-0.0335693
0.00305176	-0.0387573	-0.0357056
0.000915527	-0.0384521	-0.0375366
0.000610352	-0.0390625	-0.0384521
0.00183105	-0.0405884	-0.0387573
0.00305176	-0.0418091	-0.0387573
0.00427246	-0.043335	-0.0390625
0.00610352	-0.045166	-0.0390625
0.00732422	-0.0463867	-0.0390625
0.00732422	-0.0466919	-0.0393677
0.00732422	-0.0460815	-0.0387573
0.00823975	-0.045166	-0.0369263
0.00854492	-0.0439453	-0.0354004
0.00793457	-0.0427246	-0.03479
0.00701904	-0.0415039	-0.0344849
0.00610352	-0.0408936	-0.03479
0.00579834	-0.0411987	-0.0354004
0.00579834	-0.0421143	-0.0363159
0.00610352	-0.0430298	-0.0369263
0.00549316	-0.0439453	-0.0384521
0.00396729	-0.0442505	-0.0402832
0.0012207	-0.0436401	-0.0424194
-0.00213623	-0.0424194	-0.0445557
-0.00488281	-0.0418091	-0.0466919
-0.00488281	-0.0421143	-0.0469971
-0.00396729	-0.0427246	-0.0466919
-0.00366211	-0.0427246	-0.0463867
-0.00488281	-0.0418091	-0.0466919
-0.00579834	-0.0408936	-0.0466919
-0.00488281	-0.0402832	-0.045166
-0.00213623	-0.0415039	-0.0436401
0.00152588	-0.0439453	-0.0424194
0.00488281	-0.0463867	-0.0415039
0.00732422	-0.0488281	-0.0415039
0.00854492	-0.050354	-0.0418091
0.00915527	-0.0518799	-0.0427246
0.00976563	-0.0534058	-0.0436401
0.0100708	-0.0546265	-0.0445557
0.00915527	-0.0543213	-0.045166
0.00640869	-0.0524902	-0.0460815
0.00305176	-0.0500488	-0.0469971
-0.000305176	-0.0473022	-0.0476074
-0.00335693	-0.0445557	-0.0479126
-0.00640869	-0.0411987	-0.0476074
-0.0088501	-0.038147	-0.0469971
-0.0100708	-0.0360107	-0.0460815
-0.010376	-0.0350952	-0.0454712
-0.00976563	-0.03479	-0.0445557
-0.00762939	-0.0350952	-0.0427246
-0.00427246	-0.0363159	-0.0405884
-0.000305176	-0.0372314	-0.0375366
0.00335693	-0.0369263	-0.0335693
0.00640869	-0.0344849	-0.0280762
0.00915527	-0.0299072	-0.020752
0.0115967	-0.0231934	-0.0115967
0.0137329	-0.0149536	-0.0012207
0.0143433	-0.00579834	0.00854492
0.0134277	0.00518799	0.0186157
0.0109863	0.0164795	0.0274658
0.00762939	0.0268555	0.0344849
0.00488281	0.0350952	0.039978
0.00366211	0.0415039	0.045166
0.00274658	0.0469971	0.0497437
0.000915527	0.0521851	0.0531006
-0.0012207	0.0579834	0.0567627
-0.00305176	0.0650024	0.0619507
-0.00366211	0.072937	0.0692749
-0.00305176	0.0827026	0.0796509
-0.00274658	0.0942993	0.0915527
-0.00274658	0.108337	0.105591
-0.00305176	0.123291	0.120239
-0.00396729	0.138245	0.134277
-0.00457764	0.153198	0.148621
-0.00549316	0.166321	0.160828
-0.00549316	0.174866	0.169373
-0.00396729	0.177307	0.17334
-0.00183105	0.175171	0.17334
0.000305176	0.169373	0.169678
0.00213623	0.161133	0.163269
0.00488281	0.149841	0.154724
0.00732422	0.136108	0.143433
0.00762939	0.12146	0.129089
0.00579834	0.107117	0.112915
0.00335693	0.0924683	0.0958252
-0.000305176	0.0775146	0.0772095
-0.00457764	0.062561	0.0579834
-0.00946045	0.0482178	0.0387573
-0.0131226	0.0335693	0.0204468
-0.0140381	0.0183105	0.00427246
-0.0134277	0.00305176	-0.010376
-0.012207	-0.0115967	-0.0238037
-0.0100708	-0.0250244	-0.0350952
-0.00671387	-0.0369263	-0.0436401
-0.00244141	-0.0473022	-0.0497437
0.00152588	-0.0546265	-0.0531006
0.00396729	-0.0588989	-0.0549316
0.00518799	-0.06073	-0.055542
0.00488281	-0.0598145	-0.0549316
0.00335693	-0.0579834	-0.0546265
0.000915527	-0.055542	-0.0546265
-0.000915527	-0.0540161	-0.0549316
-0.00213623	-0.0549316	-0.0570679
-0.00213623	-0.0588989	-0.0610352
-0.000915527	-0.0665283	-0.0674438
0.00152588	-0.078125	-0.0765991
0.00518799	-0.0927734	-0.0875854
0.0088501	-0.108948	-0.100098
0.0131226	-0.123596	-0.110474
0.017395	-0.133667	-0.116272
0.0222778	-0.137634	-0.115356
0.027771	-0.133057	-0.105286
0.0341797	-0.117798	-0.0836182
0.0411987	-0.0891113	-0.0479126
0.0488281	-0.0463867	0.00244141
0.0567627	0.0100708	0.0668335
0.0656128	0.0808716	0.146484
0.0747681	0.1651	0.239868
0.0848389	0.260925	0.345764
0.0961304	0.361633	0.457764
0.109863	0.458984	0.568848
0.126038	0.546875	0.672913
0.143738	0.621033	0.764771
0.160217	0.678711	0.838928
0.174561	0.714417	0.888977
0.186157	0.722046	0.908203
0.192261	0.700989	0.89325
0.189819	0.653687	0.843506
0.177002	0.583801	0.760803
0.155029	0.494995	0.650024
0.126343	0.392456	0.518799
0.0946045	0.28595	0.380554
0.0610352	0.182495	0.24353
0.0274658	0.088501	0.115967
-0.00366211	0.00823975	0.00457764
-0.0274658	-0.0558472	-0.083313
-0.0430298	-0.102539	-0.145569
-0.050354	-0.131226	-0.18158
-0.0494385	-0.144653	-0.194092
-0.0421143	-0.145874	-0.187988
-0.0314331	-0.13916	-0.170593
-0.0195313	-0.127869	-0.1474
-0.0088501	-0.115051	-0.123901
0	-0.103455	-0.103455
0.00579834	-0.0939941	-0.0881958
0.00854492	-0.0869751	-0.0784302
0.00854492	-0.0830078	-0.0744629
0.00701904	-0.0817871	-0.0747681
0.00579834	-0.083313	-0.0775146
0.00488281	-0.0860596	-0.0811768
0.00488281	-0.0894165	-0.0845337
0.00518799	-0.0915527	-0.0863647
0.00579834	-0.0924683	-0.0866699
0.00549316	-0.0921631	-0.0866699
0.00488281	-0.0909424	-0.0860596
0.00457764	-0.090332	-0.0857544
0.00457764	-0.0891113	-0.0845337
0.00396729	-0.0872803	-0.083313
0.00396729	-0.085144	-0.0811768
0.00549316	-0.0845337	-0.0790405
0.00854492	-0.0854492	-0.0769043
0.0125122	-0.0866699	-0.0741577
0.015564	-0.0875854	-0.0720215
0.0186157	-0.088501	-0.0698853
0.020752	-0.0891113	-0.0683594
0.0222778	-0.0891113	-0.0668335
0.0238037	-0.0888062	-0.0650024
0.0244141	-0.0875854	-0.0631714
0.0238037	-0.0857544	-0.0619507
0.0216675	-0.0836182	-0.0619507
0.0186157	-0.0811768	-0.062561
0.0152588	-0.0790405	-0.0637817
0.0119019	-0.0775146	-0.0656128
0.00823975	-0.0762939	-0.0680542
0.00640869	-0.0762939	-0.0698853
0.00732422	-0.0775146	-0.0701904
0.00946045	-0.0796509	-0.0701904
0.012207	-0.0814819	-0.0692749
0.015564	-0.083313	-0.067749
0.0192261	-0.085144	-0.065918
0.0228882	-0.0866699	-0.0637817
0.0271606	-0.0881958	-0.0610352
0.0317383	-0.0894165	-0.0576782
0.0350952	-0.0900269	-0.0549316
0.0366211	-0.0900269	-0.0534058
0.0360107	-0.0891113	-0.0531006
0.0335693	-0.0872803	-0.0537109
0.0305176	-0.085144	-0.0546265
0.0274658	-0.0836182	-0.0561523
0.0250244	-0.0823975	-0.057373
0.0234985	-0.0808716	-0.057373
0.0231934	-0.0790405	-0.0558472
0.0228882	-0.0765991	-0.0537109
0.0228882	-0.0741577	-0.0512695
0.0228882	-0.0717163	-0.0488281
0.0244141	-0.0698853	-0.0454712
0.0268555	-0.0689697	-0.0421143
0.0296021	-0.0680542	-0.0384521
0.0311279	-0.0665283	-0.0354004
0.0323486	-0.0646973	-0.0323486
0.0341797	-0.0643921	-0.0302124
0.0350952	-0.0646973	-0.0296021
0.0357056	-0.0656128	-0.0299072
0.0366211	-0.0665283	-0.0299072
0.038147	-0.0671387	-0.0289917
0.039978	-0.067749	-0.027771
0.0424194	-0.0689697	-0.0265503
0.0460815	-0.0714111	-0.0253296
0.0500488	-0.0741577	-0.0241089
0.0546265	-0.0775146	-0.0228882
0.0592041	-0.0808716	-0.0216675
0.062561	-0.083313	-0.020752
0.0643921	-0.085144	-0.020752
0.0656128	-0.0863647	-0.020752
0.0662231	-0.0863647	-0.0201416
0.0665283	-0.0860596	-0.0195313
0.0671387	-0.0860596	-0.0189209
0.0668335	-0.0854492	-0.0186157
0.0662231	-0.0839233	-0.0177002
0.0668335	-0.083313	-0.0164795
0.0680542	-0.083313	-0.0152588
0.0698853	-0.0839233	-0.0140381
0.0720215	-0.0854492	-0.0134277
0.0741577	-0.0869751	-0.0128174
0.0759888	-0.088501	-0.0125122
0.0784302	-0.0906372	-0.012207
0.0808716	-0.0924683	-0.0115967
0.0836182	-0.0939941	-0.010376
0.0863647	-0.0946045	-0.00823975
0.0891113	-0.0949097	-0.00579834
0.0918579	-0.0952148	-0.00335693
0.0946045	-0.0958252	-0.0012207
0.0973511	-0.0961304	0.0012207
0.101013	-0.0970459	0.00396729
0.106201	-0.0982666	0.00793457
0.111084	-0.0997925	0.0112915
0.114441	-0.100708	0.0137329
0.115356	-0.101624	0.0137329
0.115662	-0.101624	0.0140381
0.115662	-0.101318	0.0143433
0.115356	-0.101013	0.0143433
0.11322	-0.0994873	0.0137329
0.110168	-0.0967407	0.0134277
0.106812	-0.0930786	0.0137329
0.102844	-0.0881958	0.0146484
0.0973511	-0.0820923	0.0152588
0.0918579	-0.0759888	0.0158691
0.0878906	-0.0714111	0.0164795
0.0848389	-0.067749	0.0170898
0.0811768	-0.0637817	0.017395
0.0775146	-0.0601196	0.017395
0.0741577	-0.0567627	0.017395
0.071106	-0.0534058	0.0177002
0.0683594	-0.050354	0.0180054
0.065918	-0.0482178	0.0177002
0.0637817	-0.0460815	0.0177002
0.0616455	-0.0442505	0.017395
0.0582886	-0.0421143	0.0161743
0.0537109	-0.0387573	0.0149536
0.0476074	-0.03479	0.0128174
0.0405884	-0.0302124	0.010376
0.0326538	-0.0259399	0.00671387
0.0247192	-0.0219727	0.00274658
0.0170898	-0.0198364	-0.00274658
0.00915527	-0.0189209	-0.00976563
0.0012207	-0.0186157	-0.017395
-0.00549316	-0.0183105	-0.0238037
-0.00976563	-0.0189209	-0.0286865
-0.0125122	-0.0210571	-0.0335693
-0.0146484	-0.0238037	-0.0384521
-0.0170898	-0.0256348	-0.0427246
-0.0170898	-0.027771	-0.0448608
-0.015564	-0.0296021	-0.045166
-0.0131226	-0.0311279	-0.0442505
-0.0112915	-0.0317383	-0.0430298
-0.00976563	-0.0314331	-0.0411987
-0.00854492	-0.0308228	-0.0393677
-0.00762939	-0.0302124	-0.0378418
-0.00671387	-0.0296021	-0.0363159
-0.00610352	-0.0286865	-0.03479
-0.00610352	-0.0274658	-0.0335693
-0.00579834	-0.0268555	-0.0326538
-0.00671387	-0.0271606	-0.0338745
-0.00793457	-0.0271606	-0.0350952
-0.00823975	-0.0280762	-0.0363159
-0.00823975	-0.0289917	-0.0372314
-0.0088501	-0.0305176	-0.0393677
-0.0106812	-0.0317383	-0.0424194
-0.0125122	-0.0323486	-0.0448608
-0.0137329	-0.0323486	-0.0460815
-0.0146484	-0.0320435	-0.0466919
-0.0152588	-0.0308228	-0.0460815
-0.015564	-0.0286865	-0.0442505
-0.0164795	-0.0256348	-0.0421143
-0.017395	-0.0213623	-0.0387573
-0.0186157	-0.0164795	-0.0350952
-0.0192261	-0.012207	-0.0314331
-0.0192261	-0.0088501	-0.0280762
-0.0186157	-0.00762939	-0.0262451
-0.0164795	-0.00793457	-0.0244141
-0.0137329	-0.00946045	-0.0231934
-0.010376	-0.0115967	-0.0219727
-0.00701904	-0.0137329	-0.020752
-0.00457764	-0.0164795	-0.0210571
-0.00305176	-0.0189209	-0.0219727
-0.00152588	-0.0204468	-0.0219727
0	-0.0204468	-0.0204468
0	-0.0189209	-0.0189209
-0.000610352	-0.0158691	-0.0164795
-0.00183105	-0.012207	-0.0140381
-0.00366211	-0.00762939	-0.0112915
-0.00549316	-0.00396729	-0.00946045
-0.00701904	-0.00152588	-0.00854492
-0.00762939	-0.000610352	-0.00823975
-0.00823975	-0.000305176	-0.00854492
-0.00946045	-0.0012207	-0.0106812
-0.0100708	-0.00366211	-0.0137329
-0.00915527	-0.00732422	-0.0164795
-0.00793457	-0.0109863	-0.0189209
-0.00640869	-0.0143433	-0.020752
-0.00488281	-0.0164795	-0.0213623
-0.00335693	-0.0180054	-0.0213623
-0.00305176	-0.0177002	-0.020752
-0.00305176	-0.0164795	-0.0195313
-0.00305176	-0.0146484	-0.0177002
-0.00244141	-0.0131226	-0.015564
-0.00183105	-0.0112915	-0.0131226
-0.00213623	-0.00854492	-0.0106812
-0.00366211	-0.00518799	-0.0088501
-0.00640869	-0.00213623	-0.00854492
-0.00915527	0.000305176	-0.0088501
-0.0119019	0.00244141	-0.00946045
-0.0134277	0.00335693	-0.0100708
-0.0134277	0.00366211	-0.00976563
-0.0128174	0.00335693	-0.00946045
-0.0115967	0.00305176	-0.00854492
-0.010376	0.00305176	-0.00732422
-0.0088501	0.00244141	-0.00640869
-0.00701904	0.000610352	-0.00640869
-0.00518799	-0.00213623	-0.00732422
-0.00457764	-0.00427246	-0.0088501
-0.00579834	-0.00610352	-0.0119019
-0.00732422	-0.00701904	-0.0143433
-0.00915527	-0.00762939	-0.0167847
-0.0119019	-0.00671387	-0.0186157
-0.0152588	-0.00488281	-0.0201416
-0.0177002	-0.00244141	-0.0201416
-0.0192261	0	-0.0192261
-0.0186157	0.000915527	-0.0177002
-0.0164795	0.000610352	-0.0158691
-0.0140381	0	-0.0140381
-0.012207	-0.000610352	-0.0128174
-0.00915527	-0.00274658	-0.0119019
-0.00549316	-0.00640869	-0.0119019
-0.00244141	-0.0109863	-0.0134277
-0.000305176	-0.0146484	-0.0149536
0.000610352	-0.017395	-0.0167847
0.000610352	-0.0192261	-0.0186157
-0.000610352	-0.020752	-0.0213623
-0.0012207	-0.0213623	-0.022583
-0.00152588	-0.0210571	-0.022583
-0.00213623	-0.0201416	-0.0222778
-0.00274658	-0.0186157	-0.0213623
-0.00335693	-0.0167847	-0.0201416
-0.00396729	-0.0149536	-0.0189209
-0.00427246	-0.0131226	-0.017395
-0.00488281	-0.0109863	-0.0158691
-0.00518799	-0.00976563	-0.0149536
-0.00610352	-0.00946045	-0.015564
-0.00732422	-0.00915527	-0.0164795
-0.00946045	-0.0088501	-0.0183105
-0.012207	-0.00823975	-0.0204468
-0.0146484	-0.00793457	-0.022583
-0.0164795	-0.00823975	-0.0247192
-0.017395	-0.00976563	-0.0271606
-0.0161743	-0.012207	-0.0283813
-0.0134277	-0.015564	-0.0289917
-0.010376	-0.0186157	-0.0289917
-0.00732422	-0.0210571	-0.0283813
-0.00427246	-0.0231934	-0.0274658
-0.00152588	-0.0247192	-0.0262451
0.000610352	-0.0253296	-0.0247192
0.00152588	-0.0250244	-0.0234985
0.000915527	-0.0241089	-0.0231934
-0.000915527	-0.0222778	-0.0231934
-0.00305176	-0.0213623	-0.0244141
-0.00640869	-0.0204468	-0.0268555
-0.0106812	-0.0192261	-0.0299072
-0.0152588	-0.0183105	-0.0335693
-0.0192261	-0.017395	-0.0366211
-0.0228882	-0.0167847	-0.0396729
-0.0250244	-0.017395	-0.0424194
-0.0253296	-0.0189209	-0.0442505
-0.0250244	-0.0204468	-0.0454712
-0.0253296	-0.020752	-0.0460815
-0.0256348	-0.0201416	-0.0457764
-0.0250244	-0.0192261	-0.0442505
-0.022583	-0.0183105	-0.0408936
-0.0192261	-0.0167847	-0.0360107
-0.0152588	-0.0146484	-0.0299072
-0.0115967	-0.012207	-0.0238037
-0.00976563	-0.00762939	-0.017395
-0.00915527	-0.00152588	-0.0106812
-0.00823975	0.00579834	-0.00244141
-0.00701904	0.0134277	0.00640869
-0.00610352	0.0204468	0.0143433
-0.00549316	0.0265503	0.0210571
-0.00549316	0.0320435	0.0265503
-0.00610352	0.0378418	0.0317383
-0.00701904	0.045166	0.038147
-0.00671387	0.0521851	0.0454712
-0.00579834	0.0588989	0.0531006
-0.00427246	0.0665283	0.0622559
-0.00274658	0.0753784	0.0726318
-0.00152588	0.0860596	0.0845337
-0.00183105	0.0985718	0.0967407
-0.00274658	0.111694	0.108948
-0.00488281	0.124817	0.119934
-0.00671387	0.137634	0.13092
-0.00793457	0.149231	0.141296
-0.00915527	0.158691	0.149536
-0.010376	0.164795	0.154419
-0.0112915	0.166626	0.155334
-0.0109863	0.16449	0.153503
-0.0106812	0.159302	0.148621
-0.0115967	0.151978	0.140381
-0.0125122	0.142212	0.1297
-0.0131226	0.130615	0.117493
-0.0134277	0.117493	0.104065
-0.0143433	0.103149	0.0888062
-0.015564	0.0878906	0.0723267
-0.0177002	0.0714111	0.0537109
-0.0198364	0.0549316	0.0350952
-0.0219727	0.038147	0.0161743
-0.0241089	0.0213623	-0.00274658
-0.0268555	0.00488281	-0.0219727
-0.0283813	-0.0109863	-0.0393677
-0.0283813	-0.0259399	-0.0543213
-0.0283813	-0.0393677	-0.067749
-0.0289917	-0.0497437	-0.0787354
-0.0292969	-0.0579834	-0.0872803
-0.0286865	-0.0634766	-0.0921631
-0.027771	-0.0668335	-0.0946045
-0.0268555	-0.0680542	-0.0949097
-0.0247192	-0.0683594	-0.0930786
-0.0216675	-0.0674438	-0.0891113
-0.0180054	-0.0674438	-0.0854492
-0.0143433	-0.0689697	-0.083313
-0.0109863	-0.0726318	-0.0836182
-0.00762939	-0.078125	-0.0857544
-0.00335693	-0.0872803	-0.0906372
0.00152588	-0.0991821	-0.0976563
0.00579834	-0.11322	-0.107422
0.010376	-0.127869	-0.117493
0.0152588	-0.140991	-0.125732
0.0198364	-0.148926	-0.129089
0.0234985	-0.149231	-0.125732
0.0271606	-0.139465	-0.112305
0.0326538	-0.119324	-0.0866699
0.0396729	-0.0872803	-0.0476074
0.0469971	-0.0427246	0.00427246
0.0546265	0.0146484	0.0692749
0.0628662	0.085144	0.14801
0.0708008	0.168457	0.239258
0.0778198	0.262146	0.339966
0.0857544	0.359497	0.445251
0.0967407	0.450745	0.547485
0.110168	0.530396	0.640564
0.123291	0.595703	0.718994
0.135803	0.643616	0.779419
0.14679	0.670776	0.817566
0.155029	0.671692	0.826721
0.158691	0.644531	0.803223
0.155029	0.591736	0.746765
0.143127	0.518494	0.661621
0.123596	0.429688	0.553284
0.0976563	0.331726	0.429382
0.0671387	0.231323	0.298462
0.0341797	0.135498	0.169678
0.00183105	0.0494385	0.0512695
-0.0283813	-0.0234985	-0.0518799
-0.0543213	-0.0808716	-0.135193
-0.071106	-0.12207	-0.193176
-0.0778198	-0.148926	-0.226746
-0.0756836	-0.163879	-0.239563
-0.0674438	-0.168762	-0.236206
-0.0561523	-0.166321	-0.222473
-0.0436401	-0.158691	-0.202332
-0.0311279	-0.148926	-0.180054
-0.0204468	-0.13916	-0.159607
-0.0128174	-0.13092	-0.143738
-0.00854492	-0.125122	-0.133667
-0.00793457	-0.121155	-0.129089
-0.00854492	-0.119324	-0.127869
-0.00854492	-0.119629	-0.128174
-0.00793457	-0.12146	-0.129395
-0.00732422	-0.123901	-0.131226
-0.00671387	-0.127258	-0.133972
-0.00427246	-0.131836	-0.136108
-0.00152588	-0.136719	-0.138245
0.000610352	-0.140686	-0.140076
0.00183105	-0.143127	-0.141296
0.00183105	-0.144958	-0.143127
0.00152588	-0.145264	-0.143738
0.000610352	-0.144653	-0.144043
-0.0012207	-0.143433	-0.144653
-0.00335693	-0.141907	-0.145264
-0.00610352	-0.140076	-0.146179
-0.00823975	-0.13855	-0.14679
-0.00946045	-0.137024	-0.146484
-0.00976563	-0.135803	-0.145569
-0.00915527	-0.134277	-0.143433
-0.00793457	-0.133362	-0.141296
-0.00610352	-0.133362	-0.139465
-0.00427246	-0.133972	-0.138245
-0.00244141	-0.135193	-0.137634
-0.000915527	-0.136108	-0.137024
-0.000610352	-0.136108	-0.136719
-0.000915527	-0.135498	-0.136414
-0.00244141	-0.133972	-0.136414
-0.00335693	-0.132751	-0.136108
-0.00396729	-0.132446	-0.136414
-0.00457764	-0.132751	-0.137329
-0.00518799	-0.133362	-0.13855
-0.00610352	-0.133972	-0.140076
-0.00610352	-0.134888	-0.140991
-0.00488281	-0.135803	-0.140686
-0.00213623	-0.137024	-0.13916
0.000915527	-0.13855	-0.137634
0.00427246	-0.140076	-0.135803
0.00732422	-0.140991	-0.133667
0.00946045	-0.140991	-0.131531
0.010376	-0.140076	-0.1297
0.0106812	-0.138245	-0.127563
0.0106812	-0.136414	-0.125732
0.010376	-0.133972	-0.123596
0.00946045	-0.131836	-0.122375
0.00823975	-0.130005	-0.121765
0.00640869	-0.127869	-0.12146
0.00396729	-0.125427	-0.12146
0.0012207	-0.122986	-0.121765
0.000305176	-0.121765	-0.12146
0.0012207	-0.12085	-0.119629
0.00274658	-0.120544	-0.117798
0.00396729	-0.119934	-0.115967
0.00488281	-0.117798	-0.112915
0.00671387	-0.115662	-0.108948
0.00946045	-0.113525	-0.104065
0.0128174	-0.11261	-0.0997925
0.0152588	-0.112305	-0.0970459
0.0161743	-0.110474	-0.0942993
0.0149536	-0.108032	-0.0930786
0.0140381	-0.105591	-0.0915527
0.0140381	-0.10376	-0.0897217
0.0143433	-0.102539	-0.0881958
0.0149536	-0.102539	-0.0875854
0.0161743	-0.103455	-0.0872803
0.0183105	-0.105591	-0.0872803
0.0216675	-0.109253	-0.0875854
0.0265503	-0.113525	-0.0869751
0.0320435	-0.118103	-0.0860596
0.0369263	-0.122681	-0.0857544
0.0411987	-0.126343	-0.085144
0.045166	-0.127869	-0.0827026
0.0485229	-0.128174	-0.0796509
0.0515747	-0.127563	-0.0759888
0.0540161	-0.126648	-0.0726318
0.0558472	-0.125122	-0.0692749
0.0570679	-0.122986	-0.065918
0.057373	-0.120544	-0.0631714
0.057373	-0.118408	-0.0610352
0.0579834	-0.117188	-0.0592041
0.0585938	-0.116882	-0.0582886
0.0592041	-0.117798	-0.0585938
0.0601196	-0.119629	-0.0595093
0.0616455	-0.122986	-0.0613403
0.0631714	-0.126343	-0.0631714
0.0650024	-0.128784	-0.0637817
0.0668335	-0.13092	-0.0640869
0.0689697	-0.132751	-0.0637817
0.0717163	-0.134583	-0.0628662
0.0750732	-0.135803	-0.06073
0.0778198	-0.136108	-0.0582886
0.0799561	-0.136108	-0.0561523
0.0805664	-0.135193	-0.0546265
0.0811768	-0.133667	-0.0524902
0.0811768	-0.131836	-0.0506592
0.0808716	-0.130005	-0.0491333
0.0799561	-0.128174	-0.0482178
0.0790405	-0.125427	-0.0463867
0.0772095	-0.122375	-0.045166
0.0741577	-0.119019	-0.0448608
0.071106	-0.115356	-0.0442505
0.0680542	-0.112305	-0.0442505
0.0650024	-0.109253	-0.0442505
0.0601196	-0.105896	-0.0457764
0.0527954	-0.101318	-0.0485229
0.0445557	-0.0961304	-0.0515747
0.0369263	-0.0909424	-0.0540161
0.0302124	-0.0860596	-0.0558472
0.0238037	-0.0814819	-0.0576782
0.0170898	-0.0772095	-0.0601196
0.0106812	-0.072937	-0.0622559
0.00518799	-0.0692749	-0.0640869
0.000610352	-0.0662231	-0.0656128
-0.00457764	-0.0634766	-0.0680542
-0.00976563	-0.0610352	-0.0708008
-0.015564	-0.0588989	-0.0744629
-0.0219727	-0.057373	-0.0793457
-0.0283813	-0.0561523	-0.0845337
-0.03479	-0.0552368	-0.0900269
-0.0411987	-0.0543213	-0.09552
-0.0473022	-0.0540161	-0.101318
-0.0540161	-0.0537109	-0.107727
-0.0598145	-0.0540161	-0.113831
-0.0640869	-0.0546265	-0.118713
-0.065918	-0.0561523	-0.12207
-0.065918	-0.0579834	-0.123901
-0.0646973	-0.0598145	-0.124512
-0.0628662	-0.0616455	-0.124512
-0.0604248	-0.0637817	-0.124207
-0.0585938	-0.0650024	-0.123596
-0.0561523	-0.0662231	-0.122375
-0.0534058	-0.0671387	-0.120544
-0.0509644	-0.0674438	-0.118408
-0.0500488	-0.0671387	-0.117188
-0.0509644	-0.0662231	-0.117188
