Stethoscope	ECG
-0.0622559	-0.00762939
-0.0784302	-0.00610352
-0.0531006	-0.00488281
-0.0231934	-0.00305176
0.0112915	-0.000305176
0.0531006	0.00335693
0.0695801	0.00640869
0.0790405	0.00793457
0.0485229	0.00793457
0.00701904	0.00671387
-0.0198364	0.00427246
-0.0296021	0.000610352
-0.0262451	-0.00488281
-0.0170898	-0.0119019
-0.0131226	-0.0192261
-0.0198364	-0.0262451
-0.0314331	-0.0326538
-0.0296021	-0.038147
-0.0204468	-0.0436401
-0.00732422	-0.0497437
0.00274658	-0.0558472
0.0131226	-0.0613403
0.0314331	-0.0656128
0.032959	-0.0680542
0.0115967	-0.0704956
0.0134277	-0.0738525
0.0115967	-0.0784302
0.0119019	-0.0839233
-0.0259399	-0.0900269
-0.067749	-0.0964355
-0.0656128	-0.102234
-0.017395	-0.107422
0.0436401	-0.11261
0.102844	-0.118408
0.113525	-0.123596
0.0698853	-0.127258
0.0140381	-0.130005
-0.0338745	-0.132751
-0.0375366	-0.133972
-0.0140381	-0.134277
-0.00183105	-0.134277
0.00976563	-0.134888
0.0283813	-0.136414
0.0390625	-0.138855
0.0302124	-0.139771
-0.0088501	-0.139465
-0.067749	-0.139771
-0.163269	-0.139771
-0.271606	-0.139771
-0.289917	-0.13916
-0.191345	-0.138855
-0.0125122	-0.138245
0.135193	-0.136414
0.195923	-0.135193
0.218506	-0.135193
0.226746	-0.135803
0.225525	-0.136719
0.171814	-0.137024
0.0836182	-0.136719
0.00579834	-0.136108
-0.06073	-0.134888
-0.105591	-0.133972
-0.117798	-0.133057
-0.0976563	-0.132751
-0.0564575	-0.132446
-0.0527954	-0.131836
-0.0762939	-0.131226
-0.0775146	-0.13092
-0.0549316	-0.131836
-0.00518799	-0.132141
0.0283813	-0.130615
0.0415039	-0.127563
0.0457764	-0.123596
0.0445557	-0.119019
0.0332642	-0.115051
0.0088501	-0.111694
-0.0253296	-0.109558
-0.0531006	-0.109253
-0.0418091	-0.110474
-0.0109863	-0.112305
0.0289917	-0.115356
0.0424194	-0.119019
0.0588989	-0.122375
0.0970459	-0.124207
0.114746	-0.125122
0.107727	-0.124512
0.0256348	-0.121155
-0.0708008	-0.115967
-0.123901	-0.110168
-0.13855	-0.10498
-0.117188	-0.101013
-0.0967407	-0.0985718
-0.0415039	-0.0973511
0.0204468	-0.0976563
0.0622559	-0.0994873
0.0866699	-0.101624
0.0964355	-0.10376
0.107117	-0.10498
0.0717163	-0.10498
0.0012207	-0.104675
-0.0628662	-0.104065
-0.0906372	-0.102234
-0.0765991	-0.0994873
-0.0662231	-0.0964355
-0.0326538	-0.093689
-0.00274658	-0.0921631
0.0137329	-0.0921631
0.0177002	-0.0933838
0.00213623	-0.09552
0.010376	-0.0979614
0.0335693	-0.100403
0.0488281	-0.103149
0.045166	-0.105896
0.0213623	-0.108643
0.00518799	-0.110779
-0.000305176	-0.112305
0.00366211	-0.111694
-0.00579834	-0.108643
-0.03479	-0.104675
-0.0634766	-0.101624
-0.0720215	-0.101318
-0.0631714	-0.101929
-0.0238037	-0.102539
0.0134277	-0.103149
0.0445557	-0.104675
0.0717163	-0.107422
0.0741577	-0.110779
0.0784302	-0.114136
0.06073	-0.116272
0.038147	-0.116882
0.0152588	-0.116272
-0.0204468	-0.115051
-0.0354004	-0.113525
-0.0671387	-0.111694
-0.112915	-0.109253
-0.121765	-0.106812
-0.0842285	-0.105286
-0.0134277	-0.105896
0.027771	-0.108643
0.0341797	-0.111694
0.0454712	-0.113525
0.0567627	-0.113831
0.0796509	-0.114136
0.0759888	-0.115051
0.0515747	-0.116272
0.015564	-0.116577
-0.0463867	-0.115051
-0.0979614	-0.112
-0.109253	-0.108643
-0.0671387	-0.106506
-0.00793457	-0.105896
0.0366211	-0.106201
0.0610352	-0.107727
0.0723267	-0.110168
0.0787354	-0.11261
0.0686646	-0.114136
0.0320435	-0.114746
-0.0195313	-0.115356
-0.0515747	-0.115662
-0.0656128	-0.115356
-0.0637817	-0.113525
-0.0497437	-0.110474
-0.0427246	-0.106812
-0.0265503	-0.103455
0.00213623	-0.100708
0.0177002	-0.0973511
0.039978	-0.0930786
0.0662231	-0.0872803
0.0689697	-0.0811768
0.0683594	-0.0756836
0.0311279	-0.0698853
-0.0134277	-0.0628662
-0.0341797	-0.0549316
-0.0500488	-0.0466919
-0.0509644	-0.038147
-0.0448608	-0.0296021
-0.0387573	-0.0222778
-0.0164795	-0.0149536
0.00946045	-0.00579834
0.0183105	0.00518799
0.0143433	0.0177002
-0.00427246	0.0317383
-0.0152588	0.0466919
0.00396729	0.0610352
0.0222778	0.0747681
0.0244141	0.0881958
0.0256348	0.101013
0.0167847	0.111084
0.0241089	0.116882
0.0228882	0.119324
-0.0213623	0.118713
-0.0543213	0.114136
-0.0585938	0.107117
-0.055542	0.0985718
-0.0393677	0.0891113
-0.0317383	0.078125
-0.0140381	0.0637817
0.0405884	0.0457764
0.0762939	0.0262451
0.0695801	0.00549316
0.0494385	-0.0167847
0.0265503	-0.0390625
0.00915527	-0.0604248
0.00915527	-0.0814819
0.00793457	-0.101624
0.0140381	-0.119019
0.0363159	-0.132141
0.0296021	-0.141296
-0.000915527	-0.146484
-0.0210571	-0.149536
-0.0576782	-0.150146
-0.0854492	-0.148621
-0.0695801	-0.145264
-0.0387573	-0.141907
-0.0195313	-0.140076
-0.00823975	-0.139771
-0.0219727	-0.140991
-0.0167847	-0.143738
0.0158691	-0.149841
0.0234985	-0.159302
0.0262451	-0.171814
0.0393677	-0.185242
0.0265503	-0.197754
0.0119019	-0.206299
0.00213623	-0.207214
-0.0183105	-0.198669
-0.0012207	-0.178223
0.0158691	-0.144043
0.00640869	-0.0939941
0.017395	-0.0274658
0.0112915	0.0561523
-0.00732422	0.155334
-0.00671387	0.270081
-0.0167847	0.396729
-0.0274658	0.527344
-0.012207	0.652771
0.0012207	0.766907
0.0320435	0.864258
0.0650024	0.938416
0.0540161	0.981445
0.0283813	0.986328
-0.0012207	0.950012
-0.0317383	0.874939
-0.0366211	0.766907
-0.0531006	0.633545
-0.0863647	0.483704
-0.0997925	0.328369
-0.102539	0.178528
-0.0686646	0.0439453
0.015564	-0.0668335
0.106506	-0.149536
0.177307	-0.203247
0.178223	-0.230103
0.0906372	-0.23468
-0.010376	-0.224304
-0.0616455	-0.205383
-0.0326538	-0.183411
0.0726318	-0.162354
0.134583	-0.146179
0.0570679	-0.136414
-0.118408	-0.133972
-0.291443	-0.136719
-0.335083	-0.143127
-0.203247	-0.151367
0.0524902	-0.158997
0.308838	-0.165405
0.392456	-0.169067
0.256042	-0.170898
0.0561523	-0.171814
-0.0973511	-0.171509
-0.218811	-0.170288
-0.307007	-0.169678
-0.342407	-0.169067
-0.292969	-0.167847
-0.148926	-0.166016
0.0149536	-0.16449
0.165405	-0.163879
0.327454	-0.163269
0.455017	-0.161743
0.476379	-0.160522
0.369263	-0.160522
0.13916	-0.160828
-0.137024	-0.160217
-0.366211	-0.158997
-0.475159	-0.15686
-0.448608	-0.154419
-0.316467	-0.151978
-0.140991	-0.149536
0.0308228	-0.146484
0.168152	-0.142822
0.249939	-0.140381
0.285034	-0.13855
0.283508	-0.136108
0.23468	-0.133362
0.141602	-0.131836
0.0213623	-0.131226
-0.0881958	-0.13092
-0.145874	-0.130615
-0.157471	-0.129395
-0.134583	-0.127869
-0.0982666	-0.125732
-0.0500488	-0.123596
-0.00305176	-0.121765
0.0183105	-0.119934
0.020752	-0.118408
0.012207	-0.116882
0.0106812	-0.115967
0.0149536	-0.117493
0	-0.121155
-0.0338745	-0.123291
-0.0708008	-0.121765
-0.0906372	-0.118408
-0.0775146	-0.114441
-0.0341797	-0.110474
0.0231934	-0.107117
0.078125	-0.103455
0.106201	-0.0985718
0.104065	-0.093689
0.0839233	-0.0900269
0.0411987	-0.0881958
-0.0189209	-0.0875854
-0.0579834	-0.0872803
-0.0598145	-0.0863647
-0.0454712	-0.0854492
-0.0234985	-0.0845337
-0.0180054	-0.0827026
-0.000305176	-0.0793457
0.0289917	-0.0747681
0.03479	-0.0695801
0.0286865	-0.0637817
0.000305176	-0.0582886
-0.0280762	-0.0543213
-0.0238037	-0.0527954
-0.00335693	-0.0524902
0.0308228	-0.0521851
0.065918	-0.0518799
0.0747681	-0.0521851
0.0650024	-0.0540161
0.0445557	-0.0558472
0.00366211	-0.0564575
-0.032959	-0.0552368
-0.0561523	-0.0534058
-0.0827026	-0.0515747
-0.0946045	-0.0488281
-0.101013	-0.0439453
-0.0836182	-0.0375366
-0.0299072	-0.0305176
0.0106812	-0.0241089
0.0253296	-0.0183105
0.0396729	-0.0128174
0.0588989	-0.00823975
0.0860596	-0.00427246
0.0909424	-0.000915527
0.0527954	0.00274658
0.0198364	0.00610352
-0.00183105	0.00762939
-0.032959	0.00854492
-0.0521851	0.010376
-0.0634766	0.0119019
-0.0537109	0.0128174
-0.0308228	0.0128174
-0.032959	0.0128174
-0.0198364	0.012207
0.0146484	0.0115967
0.0387573	0.0112915
0.0427246	0.0119019
0.0372314	0.0134277
0.0250244	0.0164795
0.0143433	0.0195313
-0.00579834	0.0210571
-0.0335693	0.0213623
-0.0180054	0.0210571
0.00732422	0.0195313
0.0137329	0.0170898
0.0247192	0.0149536
0.0177002	0.0112915
0.0109863	0.00518799
0.010376	-0.00183105
-0.0128174	-0.0088501
-0.0216675	-0.0149536
-0.0125122	-0.0201416
-0.0201416	-0.0262451
-0.0167847	-0.0335693
-0.0109863	-0.0418091
-0.0222778	-0.0509644
-0.0189209	-0.0601196
-0.0192261	-0.0674438
-0.0183105	-0.0735474
0.0137329	-0.0778198
0.0283813	-0.0814819
0.017395	-0.0842285
0.0253296	-0.085144
0.032959	-0.0848389
0.0341797	-0.0845337
0.0296021	-0.0839233
-0.0125122	-0.0842285
-0.0488281	-0.0857544
-0.0396729	-0.0891113
-0.022583	-0.0921631
0.00640869	-0.0949097
0.0366211	-0.0970459
0.0341797	-0.0985718
0.0354004	-0.0985718
0.0424194	-0.0985718
0.0234985	-0.0991821
0.0177002	-0.0994873
-0.012207	-0.0994873
-0.10498	-0.0991821
-0.194397	-0.0979614
-0.213928	-0.0973511
-0.133667	-0.0973511
0.0125122	-0.0976563
0.119934	-0.0976563
0.159302	-0.0958252
0.174561	-0.0921631
0.160217	-0.0875854
0.122681	-0.083313
0.0744629	-0.0811768
-0.0109863	-0.0802612
-0.0775146	-0.0787354
-0.0827026	-0.0772095
-0.0680542	-0.0769043
-0.022583	-0.0762939
0.0332642	-0.0747681
0.0280762	-0.0735474
-0.0241089	-0.0720215
-0.0869751	-0.0695801
-0.149231	-0.0668335
-0.162354	-0.0634766
-0.105591	-0.0592041
-0.0326538	-0.0549316
0.0622559	-0.0512695
0.151062	-0.0494385
0.177307	-0.0491333
0.182495	-0.0494385
0.158081	-0.0485229
0.0671387	-0.0469971
-0.0244141	-0.0448608
-0.0878906	-0.0430298
-0.137939	-0.0424194
-0.144958	-0.0427246
-0.116882	-0.0427246
-0.0769043	-0.0418091
-0.0100708	-0.0393677
0.0378418	-0.0357056
0.0338745	-0.0320435
0.0393677	-0.0302124
0.0497437	-0.0292969
0.0323486	-0.0283813
0.0146484	-0.0274658
0.00457764	-0.0280762
0.00610352	-0.0299072
0.0292969	-0.0323486
0.0350952	-0.0341797
0.0164795	-0.0354004
0.0106812	-0.0357056
0.00488281	-0.03479
-0.0119019	-0.0335693
-0.0219727	-0.0308228
-0.0289917	-0.0259399
-0.0335693	-0.0189209
-0.0170898	-0.0119019
0.00213623	-0.00549316
-0.00213623	-0.000915527
-0.0201416	0.00213623
-0.027771	0.00396729
-0.0140381	0.00518799
0.0183105	0.00488281
0.0363159	0.00274658
0.0222778	0.0012207
0.00701904	0.000305176
0.00305176	-0.000305176
0.00335693	0
0.00457764	0.0012207
0.00518799	0.00244141
-0.00488281	0.00396729
-0.0183105	0.00518799
-0.027771	0.00488281
-0.038147	0.00396729
-0.0384521	0.00274658
-0.0296021	0.000915527
-0.0140381	-0.000610352
0.00549316	-0.00152588
0.0299072	-0.00274658
0.0418091	-0.00457764
0.0424194	-0.00579834
0.0384521	-0.00549316
0.0335693	-0.00427246
0.0253296	-0.00213623
0.0210571	0.000915527
0.000915527	0.00366211
-0.027771	0.00579834
-0.0369263	0.00793457
-0.0457764	0.00976563
-0.0469971	0.010376
-0.0314331	0.0106812
-0.0143433	0.0106812
0.00457764	0.0109863
0.0256348	0.0115967
0.0354004	0.0125122
0.0280762	0.0140381
0.0170898	0.0152588
0.00854492	0.0158691
-0.0012207	0.0161743
0.000610352	0.0161743
-0.00610352	0.0152588
-0.00701904	0.0143433
0.012207	0.0140381
0.0280762	0.0137329
0.0286865	0.0128174
0.0137329	0.0115967
-0.0253296	0.010376
-0.072937	0.010376
-0.0967407	0.0112915
-0.0854492	0.012207
-0.045166	0.0134277
0.0109863	0.0143433
0.0534058	0.015564
0.0753784	0.0161743
0.0961304	0.0170898
0.116577	0.0189209
0.102844	0.0219727
0.0582886	0.0247192
0.00671387	0.0265503
-0.0463867	0.0283813
-0.0820923	0.0311279
-0.0933838	0.0350952
-0.104065	0.0405884
-0.098877	0.0473022
-0.067749	0.0552368
-0.0247192	0.062561
0.0143433	0.0701904
0.0485229	0.0790405
0.0527954	0.090332
0.0396729	0.101318
0.0350952	0.110779
0.0360107	0.119324
0.0387573	0.127869
0.0375366	0.136719
0.0210571	0.145874
-0.0100708	0.15564
-0.0396729	0.166626
-0.067749	0.177917
-0.0723267	0.188293
-0.0524902	0.198364
-0.0332642	0.210571
-0.020752	0.223999
0.00793457	0.237122
0.0473022	0.249634
0.0769043	0.259399
0.0811768	0.265808
0.0494385	0.26886
0.0234985	0.268555
0.0216675	0.265503
0.0180054	0.259399
-0.0125122	0.250244
-0.0350952	0.237732
-0.0476074	0.221863
-0.0646973	0.202637
-0.0500488	0.182495
-0.0256348	0.161743
-0.00793457	0.141602
0.0161743	0.122375
0.0109863	0.104065
0.0161743	0.0869751
0.0357056	0.0708008
0.0366211	0.0552368
0.0442505	0.0411987
0.0537109	0.0296021
0.0427246	0.0210571
0.00549316	0.0149536
-0.0350952	0.0109863
-0.0469971	0.00823975
-0.0363159	0.00640869
-0.0369263	0.00640869
-0.0512695	0.00823975
-0.0585938	0.0109863
-0.0497437	0.012207
-0.039978	0.0112915
-0.039978	0.00823975
-0.0274658	0.00213623
0.00854492	-0.00823975
0.0595093	-0.0219727
0.0982666	-0.03479
0.125427	-0.0436401
0.11261	-0.0463867
0.0646973	-0.0408936
0.0253296	-0.0231934
-0.0259399	0.00915527
-0.0653076	0.0576782
-0.0714111	0.122986
-0.0942993	0.205078
-0.106201	0.303955
-0.0808716	0.419922
-0.0305176	0.549316
0.0344849	0.684204
0.0848389	0.81543
0.100098	0.93689
0.0985718	1.04309
0.0857544	1.12579
0.0415039	1.17706
-0.00915527	1.1911
-0.0384521	1.16608
-0.0628662	1.10016
-0.0897217	0.995789
-0.109558	0.860901
-0.122986	0.707397
-0.115662	0.547791
-0.0762939	0.393677
-0.0109863	0.255432
0.0720215	0.140686
0.153198	0.0531006
0.201721	-0.00518799
0.185547	-0.0344849
0.111694	-0.0390625
0.00152588	-0.0256348
-0.0866699	-0.00274658
-0.0842285	0.0222778
0.0134277	0.0439453
0.112915	0.0576782
0.0964355	0.0634766
-0.0231934	0.0637817
-0.172424	0.0601196
-0.267639	0.0540161
-0.227051	0.0466919
-0.0509644	0.0393677
0.176086	0.0341797
0.314026	0.0323486
0.255432	0.0332642
0.0701904	0.0354004
-0.101013	0.0378418
-0.243225	0.0396729
-0.346375	0.0405884
-0.350342	0.0396729
-0.248108	0.0390625
-0.0787354	0.0387573
0.101318	0.0390625
0.238037	0.039978
0.351563	0.0415039
0.419922	0.0436401
0.38208	0.0457764
0.268555	0.0482178
0.116577	0.050354
-0.0973511	0.0512695
-0.292358	0.0512695
-0.422668	0.0521851
-0.460815	0.0531006
-0.366516	0.0531006
-0.200806	0.0534058
-0.0219727	0.055542
0.136414	0.0585938
0.248718	0.0628662
0.303955	0.0683594
0.28656	0.0750732
0.224304	0.0811768
0.151672	0.0857544
0.085144	0.0897217
0.0271606	0.0927734
-0.0393677	0.0942993
-0.0888062	0.0927734
-0.111694	0.0891113
-0.132751	0.0842285
-0.124207	0.0805664
-0.0909424	0.0799561
-0.0537109	0.0811768
-0.0158691	0.0836182
-0.0149536	0.0863647
-0.0216675	0.090332
-0.00457764	0.0952148
-0.00152588	0.100708
0.0012207	0.105286
-0.000305176	0.108337
-0.0320435	0.110779
-0.0308228	0.112
-0.00213623	0.112
0.0289917	0.111389
0.0595093	0.110474
0.0613403	0.110779
0.0466919	0.11261
0.0396729	0.115662
0.012207	0.119324
-0.0210571	0.123596
-0.0341797	0.128479
-0.0341797	0.133667
-0.0317383	0.138245
-0.0363159	0.141602
-0.0234985	0.143738
0.00518799	0.145569
0.0314331	0.146484
0.0506592	0.14801
0.0402832	0.150757
0.0421143	0.153503
0.0527954	0.155945
0.0357056	0.159607
0.010376	0.163879
-0.0201416	0.168457
-0.0436401	0.17334
-0.0311279	0.178223
-0.0198364	0.1828
-0.0109863	0.186462
-0.0137329	0.188904
-0.0274658	0.190735
-0.0292969	0.192871
-0.0247192	0.193787
-0.0186157	0.193481
-0.0115967	0.193787
0.00274658	0.196228
0.0250244	0.200195
0.0479126	0.204163
0.0616455	0.207214
0.0445557	0.209961
0.0125122	0.212097
-0.00396729	0.214844
-0.0244141	0.218506
-0.0430298	0.221863
-0.0616455	0.223999
-0.0714111	0.224304
-0.0469971	0.222778
-0.0259399	0.221558
-0.0204468	0.221558
-0.000610352	0.222778
0.0244141	0.223694
0.0521851	0.223999
0.0704956	0.223999
0.072937	0.223999
0.0762939	0.224304
0.0582886	0.224609
0.0183105	0.226135
-0.0256348	0.228271
-0.0628662	0.230713
-0.0616455	0.231934
-0.0582886	0.231323
-0.0460815	0.231018
-0.0265503	0.231628
-0.0115967	0.230408
0.0088501	0.226746
0.0137329	0.221863
0.0213623	0.21637
0.0344849	0.210571
0.0357056	0.202942
0.0238037	0.193481
0.0131226	0.184021
0.0100708	0.175171
0	0.167236
-0.00305176	0.159607
-0.0201416	0.152588
-0.0177002	0.145569
-0.0109863	0.139771
-0.0247192	0.135193
-0.0183105	0.131226
-0.0112915	0.126953
0.00671387	0.122375
0.0219727	0.117798
0.0146484	0.11322
0.0180054	0.109253
0.00549316	0.107117
-0.00976563	0.106812
0	0.106812
0.0149536	0.106201
0.0253296	0.10498
0.00823975	0.104675
-0.0161743	0.105591
-0.0262451	0.106812
-0.0195313	0.107422
-0.0106812	0.106812
-0.00762939	0.105286
-0.0112915	0.101624
-0.00183105	0.0979614
-0.0198364	0.09552
-0.100403	0.0952148
-0.140686	0.0949097
-0.088501	0.0942993
0.0152588	0.093689
0.126343	0.093689
0.173035	0.0949097
0.167236	0.0970459
0.134583	0.098877
0.0784302	0.100098
-0.000610352	0.100403
-0.0811768	0.101013
-0.158691	0.102539
-0.171814	0.10498
-0.102844	0.107727
-0.00732422	0.110779
0.0872803	0.113525
0.118408	0.115356
0.0775146	0.116272
0.0268555	0.115662
-0.0244141	0.113525
-0.0527954	0.112305
-0.0488281	0.112305
-0.0387573	0.112
-0.00762939	0.111389
0.0262451	0.110779
0.0378418	0.110474
0.0378418	0.112305
0.0177002	0.115356
-0.00579834	0.118713
-0.0186157	0.122375
-0.050354	0.126038
-0.0640869	0.128479
-0.0717163	0.129395
-0.0637817	0.126953
-0.0186157	0.122986
0.0418091	0.119934
0.108337	0.119324
0.136414	0.119629
0.105591	0.119629
0.0445557	0.119934
-0.012207	0.12085
-0.0360107	0.122375
-0.0473022	0.123901
-0.0488281	0.125732
-0.0634766	0.126953
-0.0524902	0.127869
-0.0421143	0.127869
-0.0369263	0.127258
-0.00823975	0.126038
0.0213623	0.124207
0.0466919	0.122681
0.0515747	0.120544
0.0424194	0.119019
0.0473022	0.119019
0.0283813	0.120239
-0.00152588	0.122375
-0.0366211	0.124207
-0.0683594	0.125122
-0.0653076	0.124817
-0.0588989	0.124512
-0.0454712	0.125427
-0.0259399	0.127563
-0.00305176	0.128784
0.0292969	0.128479
0.0482178	0.126038
0.0570679	0.12207
0.0521851	0.117188
0.045166	0.113831
0.0460815	0.110779
0.0323486	0.108337
0.0167847	0.106506
-0.0415039	0.105591
-0.114136	0.105896
-0.143738	0.107117
-0.110474	0.108948
-0.00579834	0.111084
0.0924683	0.113525
0.143127	0.115967
0.153198	0.117493
0.112305	0.117493
0.0610352	0.115662
-0.00732422	0.11322
-0.0604248	0.111084
-0.0796509	0.110474
-0.0814819	0.111389
-0.0570679	0.112305
-0.0473022	0.11322
-0.039978	0.113831
-0.032959	0.115051
-0.0189209	0.118103
0.027771	0.12085
0.0534058	0.12085
0.0531006	0.118408
0.0241089	0.114441
-0.00854492	0.110779
-0.0131226	0.107727
-0.0186157	0.105896
0.00305176	0.104065
0.0192261	0.101929
0.0143433	0.100708
0.00518799	0.101318
-0.022583	0.102844
-0.0234985	0.105286
-0.0170898	0.107422
-0.00701904	0.109253
0.0109863	0.110474
0.0119019	0.111389
0.0219727	0.113525
0.0100708	0.117493
-0.0112915	0.122986
-0.0305176	0.130615
-0.0415039	0.140076
-0.00793457	0.151672
0.0195313	0.164795
0.0405884	0.177917
0.0415039	0.189209
0.0216675	0.197754
0.000610352	0.204163
-0.0302124	0.209045
-0.0363159	0.213623
-0.0234985	0.21759
-0.0152588	0.221863
-0.00579834	0.228882
0.00732422	0.239868
0.0256348	0.253906
0.032959	0.26886
0.020752	0.284119
0.0256348	0.299683
0.0115967	0.314636
-0.0164795	0.326843
-0.0262451	0.335388
-0.0497437	0.33844
-0.0576782	0.336609
-0.0543213	0.331116
-0.0418091	0.32196
0.00427246	0.310059
0.0436401	0.29541
0.06073	0.279236
0.0637817	0.261841
0.0515747	0.242615
0.0274658	0.221252
0.00244141	0.198059
-0.00244141	0.17395
0.00183105	0.150146
0.000610352	0.126953
-0.0222778	0.10498
-0.0384521	0.085144
-0.0222778	0.0680542
-0.00335693	0.055542
0.00549316	0.0466919
-0.0115967	0.0415039
-0.0289917	0.0393677
-0.010376	0.0402832
0.00427246	0.0430298
0.0161743	0.0460815
0.00579834	0.0488281
-0.000305176	0.0500488
0.0201416	0.0500488
0.0186157	0.0473022
0.010376	0.0402832
0.0134277	0.0292969
0.0100708	0.0164795
0.000610352	0.00305176
-0.0253296	-0.0115967
-0.0506592	-0.0247192
-0.0448608	-0.0320435
-0.0326538	-0.0314331
-0.0195313	-0.0195313
0.0125122	0.00518799
0.0357056	0.0442505
0.0537109	0.0982666
0.0430298	0.166626
-0.00946045	0.250244
-0.0485229	0.350647
-0.057373	0.466919
-0.0454712	0.594177
0.0012207	0.724792
0.0445557	0.85022
0.0692749	0.964661
0.0894165	1.0614
0.0692749	1.13434
0.0387573	1.17645
0.010376	1.17981
-0.0390625	1.13953
-0.0701904	1.05804
-0.100708	0.941467
-0.143127	0.800476
-0.153809	0.647278
-0.135803	0.491943
-0.0421143	0.343933
0.098877	0.211792
0.200806	0.103455
0.260925	0.0238037
0.255127	-0.0250244
0.161743	-0.0463867
0.0164795	-0.0476074
-0.135498	-0.0360107
-0.206299	-0.0177002
-0.160217	0.00335693
-0.0262451	0.0216675
0.119934	0.0341797
0.177917	0.0402832
0.0497437	0.0415039
-0.193481	0.0384521
-0.316467	0.0320435
-0.255127	0.022583
-0.0299072	0.0137329
0.149841	0.00701904
0.184326	0.00244141
0.139771	0
0.0930786	-0.0012207
0.0759888	-0.000915527
0.00488281	0.000915527
-0.143433	0.00427246
-0.242004	0.00762939
-0.233154	0.010376
-0.136414	0.0128174
0.015564	0.0149536
0.148315	0.0161743
0.256958	0.0164795
0.32135	0.0158691
0.2948	0.0134277
0.197144	0.0100708
0.0671387	0.00823975
-0.0942993	0.00823975
-0.245056	0.00946045
-0.354004	0.010376
-0.380859	0.0109863
-0.309753	0.0125122
-0.174561	0.0143433
-0.0158691	0.0161743
0.126953	0.0183105
0.228271	0.0195313
0.300598	0.0198364
0.330811	0.0204468
0.276184	0.0228882
0.179138	0.0259399
0.0878906	0.0286865
-0.00518799	0.0314331
-0.11261	0.0335693
-0.22644	0.0357056
-0.273743	0.0378418
-0.228271	0.0402832
-0.116272	0.0430298
-0.0164795	0.045166
0.00823975	0.0463867
0.0231934	0.0463867
0.0717163	0.0460815
0.120239	0.0460815
0.139465	0.045166
0.118713	0.0442505
0.0769043	0.043335
0.0100708	0.0430298
-0.0976563	0.0430298
-0.186157	0.0430298
-0.211792	0.0436401
-0.172424	0.045166
-0.111389	0.0469971
-0.0466919	0.0497437
0.022583	0.0540161
0.0912476	0.0588989
0.1474	0.0637817
0.162964	0.0680542
0.162354	0.0720215
0.167542	0.0750732
0.148315	0.0778198
0.0979614	0.0796509
0.0296021	0.0799561
-0.0656128	0.0796509
-0.137939	0.0796509
-0.177307	0.0793457
-0.180969	0.0784302
-0.162354	0.0775146
-0.112	0.0769043
-0.0662231	0.0769043
-0.0216675	0.0784302
0.0286865	0.0805664
0.0704956	0.083313
0.115967	0.0857544
0.128174	0.088501
0.122681	0.0912476
0.114136	0.093689
0.093689	0.0970459
0.0830078	0.100098
0.0476074	0.102539
0.00610352	0.104065
-0.0280762	0.105286
-0.0646973	0.106506
-0.0872803	0.108032
-0.0933838	0.109558
-0.0848389	0.110779
-0.0616455	0.111694
-0.0439453	0.112305
-0.0317383	0.11261
-0.0387573	0.11322
-0.0579834	0.115356
-0.0640869	0.118713
-0.0686646	0.121765
-0.0875854	0.123901
-0.0854492	0.125732
-0.0259399	0.127563
0.0494385	0.130005
0.101624	0.133057
0.140991	0.135193
0.169983	0.136108
0.184631	0.137024
0.175171	0.138855
0.126648	0.13916
0.0643921	0.136719
0.00762939	0.132751
-0.0610352	0.1297
-0.10437	0.127258
-0.148621	0.124207
-0.177612	0.118408
-0.157776	0.110779
-0.106506	0.103149
-0.0335693	0.0964355
0.0201416	0.090332
0.055542	0.0848389
0.0836182	0.0802612
0.0976563	0.0759888
0.0820923	0.0714111
0.062561	0.065918
0.0457764	0.0592041
0.00762939	0.0521851
-0.0183105	0.0448608
-0.0628662	0.0375366
-0.0720215	0.0308228
-0.0469971	0.0241089
-0.0271606	0.0170898
-0.0354004	0.010376
-0.0408936	0.00518799
-0.038147	0.00152588
-0.0311279	-0.00152588
0.00854492	-0.00396729
0.017395	-0.00579834
0.0592041	-0.00640869
0.0802612	-0.00640869
0.0701904	-0.00671387
0.0689697	-0.00732422
0.038147	-0.00823975
0.0192261	-0.0100708
0.00488281	-0.0109863
0.000305176	-0.0109863
-0.0238037	-0.0100708
-0.0341797	-0.00823975
-0.0778198	-0.00640869
-0.147705	-0.00488281
-0.198975	-0.00396729
-0.194702	-0.00335693
-0.078125	-0.0012207
0.0595093	0.00152588
0.177002	0.00396729
0.224304	0.00518799
0.222168	0.00579834
0.160522	0.00671387
0.0921631	0.00701904
-0.00518799	0.00457764
-0.105591	0
-0.128174	-0.00427246
-0.0976563	-0.00671387
-0.0180054	-0.00793457
0.0497437	-0.00915527
0.0643921	-0.0106812
0.0341797	-0.0119019
-0.0012207	-0.012207
-0.0466919	-0.0134277
-0.0927734	-0.0149536
-0.0982666	-0.0143433
-0.0695801	-0.0119019
0	-0.0100708
0.0567627	-0.0100708
0.0656128	-0.0115967
0.0494385	-0.0131226
0.0283813	-0.0137329
-0.0222778	-0.0125122
-0.0561523	-0.00915527
-0.0665283	-0.00488281
-0.0518799	-0.000915527
0.00183105	0.00213623
0.0369263	0.00549316
0.0430298	0.00854492
0.0479126	0.0100708
0.0271606	0.0112915
0.0088501	0.0125122
0.0109863	0.0125122
0.00701904	0.0112915
0.00732422	0.0100708
0.00244141	0.00854492
-0.0439453	0.00701904
-0.0543213	0.00640869
-0.0344849	0.00671387
-0.0125122	0.0088501
0.0167847	0.0106812
0.0344849	0.0112915
0.0241089	0.0100708
0.0119019	0.00793457
-0.00274658	0.00549316
-0.0219727	0.00427246
-0.0192261	0.00457764
-0.0253296	0.00579834
-0.0115967	0.00732422
0.0262451	0.0100708
0.0543213	0.0137329
0.0546265	0.017395
0.0387573	0.020752
0.0131226	0.0241089
-0.0115967	0.0268555
-0.0195313	0.027771
-0.0360107	0.0274658
-0.0436401	0.0262451
-0.0488281	0.0238037
-0.0500488	0.020752
-0.0384521	0.0180054
-0.022583	0.0167847
0.00152588	0.0164795
0.0170898	0.0161743
0.057373	0.0158691
0.0686646	0.015564
0.0726318	0.0167847
0.0387573	0.0180054
0.00488281	0.0189209
-0.0119019	0.0180054
-0.0137329	0.0158691
-0.0234985	0.0137329
-0.0323486	0.0125122
-0.027771	0.0125122
-0.0247192	0.0125122
-0.00793457	0.0128174
-0.00488281	0.0143433
0.00183105	0.0167847
0.00579834	0.0186157
-0.00427246	0.0186157
-0.0247192	0.0183105
-0.0305176	0.0189209
-0.0146484	0.0198364
0.0192261	0.0204468
0.0500488	0.0201416
0.0582886	0.020752
0.0332642	0.0244141
0.00579834	0.0311279
-0.0234985	0.039978
-0.0210571	0.0497437
-0.0088501	0.0598145
0.0088501	0.0695801
0.0140381	0.078125
-0.00183105	0.085144
-0.0393677	0.0906372
-0.0454712	0.09552
-0.0256348	0.0991821
0.0115967	0.103455
0.0125122	0.110168
0.0244141	0.119629
0.0350952	0.131836
0.0436401	0.147705
0.0308228	0.16571
-0.0143433	0.183716
-0.0265503	0.2005
-0.0442505	0.214844
-0.0372314	0.22522
-0.0350952	0.231323
-0.00671387	0.232239
0.0152588	0.228577
0.0317383	0.220947
0.0271606	0.209351
0.0146484	0.195313
0.00457764	0.180664
-0.0265503	0.166321
-0.0393677	0.151672
-0.0344849	0.135803
-0.0119019	0.117798
0.0241089	0.0982666
0.0262451	0.078125
0.0231934	0.0576782
-0.00335693	0.038147
-0.0216675	0.0195313
-0.0305176	0.00335693
0.00152588	-0.0100708
0.0106812	-0.020752
0.0402832	-0.0289917
0.0253296	-0.0350952
0.0201416	-0.038147
0.0195313	-0.0387573
0.00762939	-0.0390625
0.0231934	-0.0402832
0.0119019	-0.0415039
0.00244141	-0.0430298
-0.0259399	-0.0457764
-0.0360107	-0.0497437
-0.0326538	-0.0549316
-0.0195313	-0.0619507
-0.022583	-0.0704956
0.000305176	-0.0799561
0.0180054	-0.0878906
0.0265503	-0.0921631
0.00457764	-0.0909424
-0.0445557	-0.0830078
-0.0588989	-0.0656128
-0.0457764	-0.0366211
-0.0140381	0.00549316
0.015564	0.0613403
0.0198364	0.131836
0.0222778	0.217285
0.0366211	0.317688
0.0338745	0.432129
0.0466919	0.553589
0.0662231	0.673523
0.0610352	0.785217
0.0631714	0.884705
0.0180054	0.967102
-0.038147	1.02661
-0.0723267	1.05408
-0.115356	1.04248
-0.114746	0.992432
-0.0802612	0.906372
-0.0506592	0.789795
-0.0204468	0.65094
-0.0369263	0.501099
-0.0714111	0.352783
-0.038147	0.214539
0.0415039	0.0921631
0.162048	-0.00854492
0.274353	-0.083313
0.307312	-0.129395
0.248413	-0.149536
0.101013	-0.149841
-0.10376	-0.136414
-0.295105	-0.116272
-0.378723	-0.0949097
-0.318604	-0.0765991
-0.125427	-0.062561
0.0701904	-0.0537109
0.118408	-0.0506592
0.0576782	-0.0527954
-0.00976563	-0.0576782
0.000610352	-0.0637817
0.0994873	-0.0701904
0.219116	-0.0762939
0.301208	-0.0820923
0.321045	-0.0860596
0.248718	-0.0875854
0.107422	-0.0863647
-0.0897217	-0.083313
-0.371399	-0.0793457
-0.672913	-0.0762939
-0.823975	-0.072937
-0.700073	-0.0689697
-0.344238	-0.0650024
0.0814819	-0.0619507
0.431519	-0.06073
0.685425	-0.0619507
0.836792	-0.0646973
0.796509	-0.065918
0.574036	-0.0671387
0.261841	-0.0689697
-0.107117	-0.0704956
-0.409241	-0.0708008
-0.578308	-0.0701904
-0.620728	-0.0692749
-0.535278	-0.0689697
-0.373535	-0.0701904
-0.177307	-0.0723267
0.0457764	-0.0735474
0.209961	-0.0735474
0.27771	-0.0741577
0.289001	-0.0750732
0.25238	-0.0756836
0.215149	-0.0759888
0.177917	-0.0753784
0.0970459	-0.0732422
0.0152588	-0.0695801
-0.0515747	-0.0646973
-0.0933838	-0.0613403
-0.0842285	-0.0601196
-0.0778198	-0.0588989
-0.0793457	-0.0579834
-0.0747681	-0.0564575
-0.0854492	-0.055542
-0.0817871	-0.0564575
-0.0753784	-0.0579834
-0.06073	-0.0582886
-0.0128174	-0.0570679
0.0180054	-0.0543213
0.0610352	-0.0506592
0.101013	-0.0457764
0.0888062	-0.0402832
0.0561523	-0.0350952
0.00335693	-0.0302124
-0.0402832	-0.0256348
-0.0387573	-0.0213623
-0.0427246	-0.017395
-0.0509644	-0.0143433
-0.0411987	-0.0134277
-0.038147	-0.0146484
-0.0140381	-0.0164795
0.020752	-0.0183105
0.0341797	-0.0195313
0.0567627	-0.0210571
0.0701904	-0.0222778
0.0540161	-0.0228882
0.0521851	-0.0216675
0.0415039	-0.0204468
0.0332642	-0.0186157
0.0259399	-0.0152588
-0.0152588	-0.0109863
-0.0540161	-0.00579834
-0.0701904	-0.000305176
-0.072937	0.00488281
-0.0515747	0.00946045
-0.0305176	0.012207
-0.0119019	0.0143433
-0.00183105	0.0158691
-0.00762939	0.015564
0.00305176	0.0143433
0.0320435	0.0137329
0.0460815	0.0140381
0.0509644	0.0149536
0.0427246	0.0158691
0.0259399	0.0167847
0	0.0189209
-0.0305176	0.0231934
-0.0476074	0.0274658
-0.0350952	0.0308228
-0.0167847	0.0332642
0.000610352	0.0360107
0.0125122	0.038147
0.0109863	0.0384521
0.0146484	0.0372314
0.010376	0.0338745
-0.00427246	0.0296021
-0.00946045	0.0271606
-0.0216675	0.0259399
-0.020752	0.0253296
-0.00427246	0.0253296
0.000610352	0.0265503
0.00579834	0.0286865
-0.00305176	0.0314331
-0.0119019	0.0341797
-0.000610352	0.0369263
0.0177002	0.039978
0.0292969	0.0421143
0.0296021	0.0424194
0.0186157	0.039978
0.00457764	0.0363159
0.00549316	0.0320435
0.0119019	0.0268555
0.00946045	0.0210571
0.00640869	0.0152588
-0.0143433	0.010376
-0.0320435	0.00610352
-0.0592041	0.00152588
-0.0918579	-0.00305176
-0.0973511	-0.00732422
-0.0662231	-0.0125122
-0.00579834	-0.0186157
0.0515747	-0.0262451
0.0704956	-0.0344849
0.0698853	-0.0405884
0.0689697	-0.0448608
0.0680542	-0.0479126
0.0628662	-0.0509644
0.0460815	-0.0534058
0.0372314	-0.0549316
0.0326538	-0.0561523
0.0222778	-0.0567627
0.00976563	-0.0576782
-0.0106812	-0.0595093
-0.0286865	-0.062561
-0.0527954	-0.0671387
-0.072937	-0.0720215
-0.0616455	-0.0775146
-0.0448608	-0.083313
-0.0817871	-0.0881958
-0.197754	-0.0918579
-0.297241	-0.0942993
-0.246277	-0.09552
-0.0668335	-0.09552
0.149536	-0.0949097
0.306702	-0.093689
0.350342	-0.0927734
0.345154	-0.0912476
0.271301	-0.0897217
0.16571	-0.0891113
0.0125122	-0.088501
-0.113831	-0.0869751
-0.178833	-0.085144
-0.216675	-0.0830078
-0.181885	-0.0811768
-0.133667	-0.0793457
-0.0473022	-0.0778198
0.00946045	-0.0756836
0.0326538	-0.0735474
0.03479	-0.0717163
-0.0088501	-0.0704956
-0.00579834	-0.0698853
-0.0250244	-0.0701904
-0.0106812	-0.071106
-0.00854492	-0.0726318
-0.00213623	-0.0750732
0.038147	-0.0787354
0.0402832	-0.0827026
0.0509644	-0.0854492
0.0228882	-0.0854492
0.0238037	-0.0842285
0.0268555	-0.0823975
0.0109863	-0.0814819
0.00762939	-0.0805664
-0.0286865	-0.078125
-0.0244141	-0.0723267
-0.0247192	-0.065918
-0.015564	-0.0616455
0.0112915	-0.0601196
-0.00549316	-0.0604248
-0.00183105	-0.0619507
-0.0161743	-0.0640869
-0.0146484	-0.0668335
-0.00579834	-0.0701904
-0.00701904	-0.0741577
0.00274658	-0.0772095
-0.00854492	-0.078125
0.0109863	-0.0784302
0.0198364	-0.0787354
0.00244141	-0.0787354
-0.0128174	-0.0775146
-0.0100708	-0.0735474
0.0405884	-0.0683594
0.0576782	-0.0640869
0.0390625	-0.0616455
0.0128174	-0.0610352
-0.0161743	-0.06073
-0.0128174	-0.0610352
-0.0326538	-0.062561
-0.0518799	-0.0650024
-0.0521851	-0.0686646
-0.0521851	-0.0735474
-0.0253296	-0.0784302
-0.00640869	-0.0830078
0.0180054	-0.0869751
0.0341797	-0.0894165
0.0213623	-0.0906372
0.0228882	-0.0918579
0.0115967	-0.0927734
0.00732422	-0.0924683
0.00793457	-0.0915527
0.000610352	-0.0909424
0.010376	-0.090332
0.017395	-0.0891113
0.0311279	-0.0875854
0.0427246	-0.0857544
0.0216675	-0.0839233
-0.00610352	-0.0823975
-0.0537109	-0.0805664
-0.0790405	-0.0796509
-0.0750732	-0.0790405
-0.0588989	-0.0778198
-0.0189209	-0.0762939
0.00976563	-0.0753784
0.0335693	-0.0765991
0.0613403	-0.078125
0.0631714	-0.0796509
0.0482178	-0.0811768
0.00457764	-0.0827026
-0.0320435	-0.0830078
-0.0289917	-0.0808716
-0.0161743	-0.0765991
0.0143433	-0.0714111
0.0341797	-0.0653076
0.0234985	-0.0582886
0.0198364	-0.0509644
0.00732422	-0.0427246
0.00213623	-0.0338745
-0.00701904	-0.0256348
-0.0216675	-0.0189209
-0.0204468	-0.0134277
-0.0222778	-0.00732422
-0.0283813	-0.000915527
-0.0506592	0.00671387
-0.0537109	0.0161743
-0.0372314	0.0271606
0.000610352	0.0396729
0.0442505	0.0531006
0.0570679	0.0671387
0.0787354	0.0820923
0.0799561	0.0958252
0.057373	0.108948
0.0286865	0.119324
-0.039978	0.125122
-0.0802612	0.125122
-0.102234	0.120544
-0.0970459	0.111694
-0.0512695	0.098877
-0.00946045	0.0845337
0.0308228	0.0692749
0.0637817	0.0521851
0.0704956	0.032959
0.0674438	0.0131226
0.0531006	-0.00610352
0.0195313	-0.0241089
-0.0262451	-0.0421143
-0.0500488	-0.0592041
-0.0595093	-0.0753784
-0.0479126	-0.0909424
-0.00793457	-0.106201
0.0167847	-0.12207
0.022583	-0.137634
0.0320435	-0.150757
0.0289917	-0.160522
0.0234985	-0.167542
0.0222778	-0.172119
0.00427246	-0.174561
-0.0234985	-0.175171
-0.0241089	-0.174866
-0.0323486	-0.174561
-0.0469971	-0.174561
-0.0344849	-0.176086
-0.032959	-0.18158
-0.0222778	-0.189514
0.00396729	-0.198364
0.0167847	-0.207825
0.0201416	-0.216675
0.0338745	-0.222168
0.0497437	-0.220642
0.057373	-0.210571
0.0357056	-0.189514
0.00488281	-0.154419
-0.0125122	-0.103455
-0.0213623	-0.0375366
-0.0271606	0.0427246
-0.0378418	0.135193
-0.0531006	0.240173
-0.0424194	0.35614
-0.0161743	0.47699
0.000610352	0.596313
0.00610352	0.708618
0.0204468	0.806885
0.0430298	0.884705
0.0558472	0.936279
0.06073	0.954285
0.0460815	0.934143
0.00701904	0.874329
-0.0292969	0.776978
-0.0735474	0.649719
-0.126343	0.50354
-0.135803	0.349121
-0.088501	0.195618
-0.00946045	0.0527954
0.0930786	-0.0692749
0.196838	-0.164185
0.249023	-0.230103
0.246277	-0.266724
0.153503	-0.278625
-0.0360107	-0.271912
-0.219116	-0.253906
-0.334167	-0.231323
-0.313416	-0.209045
-0.133972	-0.191956
0.0631714	-0.181885
0.153809	-0.177002
0.103149	-0.177002
-0.0540161	-0.181274
-0.153198	-0.188293
-0.085144	-0.195618
0.0814819	-0.19989
0.263062	-0.2005
0.389709	-0.200195
0.376282	-0.200195
0.243835	-0.19928
0.0784302	-0.197449
-0.130615	-0.195007
-0.367432	-0.192871
-0.568542	-0.19104
-0.681152	-0.189819
-0.598145	-0.188599
-0.322571	-0.187988
0.00854492	-0.187988
0.356445	-0.188293
0.637512	-0.188599
0.739136	-0.189209
0.696716	-0.188599
0.489502	-0.187073
0.150452	-0.185852
-0.174255	-0.185547
-0.440674	-0.185547
-0.596313	-0.184631
-0.56427	-0.182495
-0.440979	-0.180359
-0.252686	-0.178833
-0.00274658	-0.178528
0.185242	-0.177917
0.324097	-0.177002
0.400391	-0.175476
0.352478	-0.174561
0.262451	-0.173645
0.132446	-0.172424
-0.0250244	-0.170898
-0.125427	-0.169373
-0.164795	-0.168152
-0.167542	-0.166626
-0.124817	-0.164185
-0.0656128	-0.160522
-0.0299072	-0.15686
-0.00183105	-0.154419
0.0088501	-0.152893
-0.00518799	-0.150757
-0.000305176	-0.148621
-0.00640869	-0.14679
-0.0164795	-0.145569
0.00854492	-0.144653
0.0115967	-0.144348
-0.00152588	-0.144653
0.000915527	-0.144653
-0.0125122	-0.143127
-0.0250244	-0.139465
-0.00823975	-0.135193
0.00671387	-0.131836
0.0131226	-0.130005
0.0265503	-0.128479
-0.00213623	-0.127258
-0.022583	-0.126343
-0.0100708	-0.125732
-0.00976563	-0.125427
-0.00823975	-0.125427
-0.00823975	-0.126343
-0.0140381	-0.127563
0.0216675	-0.126953
0.0665283	-0.124512
0.0613403	-0.12085
0.0845337	-0.117493
0.0778198	-0.115662
0.0357056	-0.115662
0.00640869	-0.114441
-0.0521851	-0.111084
-0.0787354	-0.106812
-0.0631714	-0.102234
-0.0695801	-0.0973511
-0.0778198	-0.0927734
-0.0622559	-0.0878906
-0.0357056	-0.0830078
0.0137329	-0.0784302
0.0689697	-0.0741577
0.0714111	-0.0701904
0.0845337	-0.0665283
0.0741577	-0.0637817
0.0540161	-0.0622559
0.0283813	-0.062561
-0.00671387	-0.0631714
-0.0643921	-0.0634766
-0.0790405	-0.0628662
-0.0845337	-0.0616455
-0.0601196	-0.06073
-0.0320435	-0.0613403
-0.0131226	-0.0637817
0.00946045	-0.0656128
0.0219727	-0.065918
0.00488281	-0.0662231
-0.0198364	-0.0668335
0.00549316	-0.0683594
0.0454712	-0.0698853
0.0744629	-0.071106
0.0756836	-0.0723267
0.0509644	-0.0732422
0.0302124	-0.0741577
0.0231934	-0.0744629
0.00793457	-0.0732422
-0.0268555	-0.071106
-0.06073	-0.0686646
-0.093689	-0.0668335
-0.0933838	-0.0650024
-0.0671387	-0.0637817
-0.0457764	-0.0628662
-0.00335693	-0.0616455
0.0302124	-0.0613403
0.0613403	-0.0634766
0.0564575	-0.0689697
0.0305176	-0.0772095
0.00732422	-0.0863647
0.0177002	-0.0949097
0.0387573	-0.102539
0.0497437	-0.109863
0.0418091	-0.115662
0.0195313	-0.120239
-0.0158691	-0.124512
-0.0344849	-0.1297
-0.071106	-0.135193
-0.0924683	-0.140076
-0.0814819	-0.143738
-0.0463867	-0.147705
-0.00183105	-0.151978
0.032959	-0.15564
0.0564575	-0.158081
0.0753784	-0.159912
0.0814819	-0.161743
0.0772095	-0.163269
0.0509644	-0.1651
0.03479	-0.166321
0.0222778	-0.166931
0.0140381	-0.166931
0.0137329	-0.168152
-0.0170898	-0.171509
-0.0897217	-0.175171
-0.215454	-0.179138
-0.317688	-0.1828
-0.280151	-0.186768
-0.158081	-0.189514
0.00915527	-0.190125
0.143127	-0.189514
0.231018	-0.187378
0.289612	-0.184937
0.307312	-0.181885
0.257263	-0.177612
0.140381	-0.172424
0.0109863	-0.166931
-0.102234	-0.162048
-0.14679	-0.158081
-0.148926	-0.155029
-0.132751	-0.153503
-0.105591	-0.152893
-0.0720215	-0.153198
-0.0421143	-0.153809
-0.0308228	-0.154114
-0.0463867	-0.153198
-0.0405884	-0.151367
0.00274658	-0.148926
0.071106	-0.146179
0.130615	-0.143127
0.140076	-0.140686
0.113525	-0.13916
0.0616455	-0.138245
-0.0231934	-0.137024
-0.0939941	-0.137024
-0.119934	-0.137634
-0.112305	-0.13916
-0.0592041	-0.140381
-0.00305176	-0.140076
0.0427246	-0.138855
0.0790405	-0.137024
0.0793457	-0.134583
0.0460815	-0.131836
0.0137329	-0.129395
-0.0317383	-0.127563
-0.0674438	-0.126343
-0.0598145	-0.125732
-0.0286865	-0.125732
0.00274658	-0.126648
0.0424194	-0.127563
0.0473022	-0.127258
0.0469971	-0.126648
0.0469971	-0.126648
-0.0125122	-0.126343
-0.0823975	-0.125122
-0.102844	-0.123596
-0.0827026	-0.122375
-0.00213623	-0.120544
0.0750732	-0.118713
0.0863647	-0.117798
0.0695801	-0.117493
0.0332642	-0.119019
0.000305176	-0.12146
-0.00915527	-0.122986
-0.0259399	-0.123291
-0.0512695	-0.123291
-0.0430298	-0.124207
-0.0241089	-0.124512
-0.00762939	-0.123901
0.0198364	-0.123901
0.0253296	-0.124817
0.0152588	-0.126343
0.00213623	-0.127563
-0.0274658	-0.129089
-0.0415039	-0.13031
-0.0195313	-0.130615
-0.00732422	-0.13092
-0.00793457	-0.132751
0.0213623	-0.136414
0.038147	-0.139771
0.0305176	-0.141907
0.0189209	-0.143127
-0.00793457	-0.142517
-0.017395	-0.140381
0.00488281	-0.138245
0.00671387	-0.137024
0.0109863	-0.135498
0.0299072	-0.133667
0.03479	-0.131226
0.0393677	-0.128784
0.027771	-0.126343
-0.0088501	-0.125122
-0.0314331	-0.124512
-0.038147	-0.123901
-0.0537109	-0.123291
-0.0421143	-0.122986
-0.00488281	-0.122681
0.00671387	-0.122375
0.0119019	-0.12146
0.0119019	-0.117798
-0.00457764	-0.111694
-0.00549316	-0.10437
-0.0109863	-0.0964355
-0.0274658	-0.0881958
-0.00579834	-0.0790405
0.0140381	-0.0683594
0.00457764	-0.0579834
0.00701904	-0.0491333
-0.00213623	-0.0421143
-0.00427246	-0.0350952
0.0152588	-0.027771
-0.00701904	-0.0198364
-0.027771	-0.012207
-0.0115967	-0.00274658
-0.00366211	0.00915527
0.0128174	0.0238037
0.0271606	0.0396729
0.00976563	0.055542
0.010376	0.0708008
0.0158691	0.0857544
0.00793457	0.0994873
0.0244141	0.109863
0.0265503	0.115356
0.00976563	0.115662
0.00335693	0.112
-0.0201416	0.10498
-0.0344849	0.0946045
-0.0244141	0.0814819
-0.0253296	0.0668335
-0.0222778	0.0512695
-0.0152588	0.0341797
-0.0164795	0.0140381
-0.0012207	-0.00854492
0.012207	-0.032959
0.0189209	-0.0570679
0.0259399	-0.0799561
0.0241089	-0.101318
0.0244141	-0.121155
0.0204468	-0.138855
0.00518799	-0.153503
-0.00793457	-0.164795
-0.0177002	-0.172729
-0.0231934	-0.176697
-0.0195313	-0.177917
-0.0222778	-0.177307
-0.0140381	-0.176392
0.00549316	-0.176392
0.0115967	-0.177307
0.0177002	-0.178223
0.0283813	-0.180969
0.0177002	-0.186157
0.00244141	-0.192566
-0.0158691	-0.199585
-0.0482178	-0.208435
-0.0640869	-0.219116
-0.0656128	-0.228882
-0.0335693	-0.236511
0.0302124	-0.238953
0.0759888	-0.234985
0.0897217	-0.222473
0.0769043	-0.198975
0.0296021	-0.162048
-0.00518799	-0.109863
-0.00976563	-0.0418091
-0.0195313	0.0427246
-0.0161743	0.143127
-0.0247192	0.259094
-0.0534058	0.386963
-0.0491333	0.520325
-0.0311279	0.651245
-0.00488281	0.7724
0.038147	0.877075
0.0421143	0.956421
0.0161743	1.00128
0.0158691	1.00525
-0.00518799	0.965576
-0.0357056	0.883789
-0.0601196	0.765686
-0.0958252	0.618896
-0.101318	0.456543
-0.0656128	0.290833
-0.0088501	0.133667
0.0985718	-0.00518799
0.206299	-0.117798
0.248108	-0.200195
0.238342	-0.25177
0.154114	-0.274963
0.00183105	-0.275269
-0.137939	-0.259705
-0.259705	-0.235901
-0.310364	-0.209961
-0.203247	-0.187378
-0.0198364	-0.171204
0.125427	-0.162659
0.136108	-0.160217
-0.0265503	-0.163269
-0.157471	-0.170288
-0.114136	-0.178833
0.0418091	-0.186768
0.248413	-0.192261
0.386963	-0.196533
0.354309	-0.19989
0.20813	-0.201721
0.00671387	-0.201416
-0.212097	-0.198975
-0.383301	-0.195313
-0.487061	-0.19165
-0.503235	-0.188904
-0.391235	-0.187073
-0.202942	-0.185547
-0.000610352	-0.184021
0.234985	-0.183105
0.440674	-0.183411
0.572815	-0.184326
0.614929	-0.184326
0.472412	-0.183716
0.18219	-0.1828
-0.12207	-0.18219
-0.388184	-0.18158
-0.527039	-0.179138
-0.489807	-0.175781
-0.361633	-0.17395
-0.177612	-0.172729
0.0296021	-0.170593
0.173035	-0.166931
0.280151	-0.162964
0.33844	-0.160522
0.302124	-0.158997
0.224609	-0.156555
0.135498	-0.154724
0.0198364	-0.154114
-0.0656128	-0.153503
-0.122986	-0.153503
-0.201721	-0.154114
-0.247192	-0.153809
-0.235291	-0.152893
-0.180969	-0.150757
-0.0537109	-0.148621
0.0704956	-0.14679
0.122681	-0.145569
0.155945	-0.144348
0.161133	-0.141907
0.109558	-0.139465
0.0482178	-0.137329
-0.0344849	-0.134583
-0.124817	-0.131531
-0.141907	-0.128479
-0.117798	-0.125427
-0.0872803	-0.12207
-0.012207	-0.118713
0.0430298	-0.115662
0.062561	-0.11261
0.0799561	-0.109863
0.0708008	-0.107727
0.0558472	-0.106506
0.0616455	-0.105896
0.0421143	-0.105591
0.00183105	-0.10498
-0.0100708	-0.102539
-0.0369263	-0.0991821
-0.0646973	-0.0967407
-0.0537109	-0.0946045
-0.0579834	-0.0924683
-0.0457764	-0.0906372
0.00488281	-0.0894165
0.0234985	-0.0881958
0.0396729	-0.0872803
0.0634766	-0.0860596
0.0488281	-0.085144
0.0460815	-0.0839233
0.0390625	-0.0827026
-0.0265503	-0.0805664
-0.0674438	-0.0769043
-0.0613403	-0.0723267
-0.0418091	-0.0674438
0.0128174	-0.0634766
0.0393677	-0.0604248
0.0146484	-0.057373
-0.00701904	-0.0540161
-0.0274658	-0.0512695
-0.038147	-0.0482178
-0.0167847	-0.045166
0.017395	-0.0427246
0.0311279	-0.0408936
0.03479	-0.0396729
0.0213623	-0.0384521
-0.0170898	-0.0378418
-0.0418091	-0.038147
-0.0540161	-0.0402832
-0.0592041	-0.0439453
-0.0323486	-0.0463867
0.0152588	-0.0466919
0.0588989	-0.0463867
0.0946045	-0.0479126
0.0982666	-0.0491333
0.0595093	-0.0482178
0.0198364	-0.0457764
-0.0177002	-0.0421143
-0.06073	-0.0372314
-0.0567627	-0.0320435
-0.0323486	-0.0280762
-0.0250244	-0.0265503
-0.00274658	-0.0271606
0.000610352	-0.0296021
-0.0112915	-0.0335693
-0.0149536	-0.0393677
-0.0326538	-0.0463867
-0.0375366	-0.0531006
-0.00793457	-0.0595093
0.0146484	-0.065918
0.0411987	-0.0723267
0.0686646	-0.0787354
0.0567627	-0.0854492
0.0396729	-0.0924683
0.0250244	-0.0979614
-0.00976563	-0.102539
-0.0167847	-0.107117
-0.022583	-0.113525
-0.0512695	-0.120239
-0.0482178	-0.125122
-0.0436401	-0.128174
-0.0357056	-0.130615
-0.0140381	-0.133972
-0.0109863	-0.137329
0.00244141	-0.138855
0.0228882	-0.138245
0.03479	-0.136414
0.0445557	-0.134888
0.0518799	-0.134888
0.0469971	-0.136108
0.03479	-0.136719
0.00793457	-0.136414
-0.0161743	-0.136414
-0.0183105	-0.137329
-0.017395	-0.139465
-0.0143433	-0.141907
-0.0405884	-0.144653
-0.0741577	-0.14801
-0.0891113	-0.152588
-0.0717163	-0.15625
-0.0228882	-0.158997
-0.00305176	-0.159912
-0.00610352	-0.159607
0.0219727	-0.158386
0.055542	-0.15625
0.0698853	-0.153198
0.0814819	-0.150146
0.0698853	-0.148315
0.0457764	-0.146179
0.0320435	-0.144043
0.00213623	-0.143127
-0.00579834	-0.142517
0.0177002	-0.141602
0.0292969	-0.141296
0.0238037	-0.141296
-0.0311279	-0.141296
-0.109253	-0.141602
-0.125122	-0.142212
-0.103149	-0.143127
-0.0610352	-0.143127
-0.00610352	-0.141602
0.0292969	-0.13916
0.0680542	-0.137329
0.0924683	-0.135803
0.0775146	-0.133667
0.0558472	-0.130615
0.0219727	-0.126648
-0.0146484	-0.12207
-0.0311279	-0.117188
-0.0408936	-0.11261
-0.0411987	-0.109558
-0.0244141	-0.107422
-0.0238037	-0.106812
-0.0183105	-0.106812
-0.0012207	-0.107727
0.022583	-0.108643
0.0585938	-0.109253
0.0570679	-0.109558
0.0152588	-0.109863
-0.0222778	-0.111389
-0.0549316	-0.113831
-0.0567627	-0.116272
-0.0402832	-0.117798
-0.0280762	-0.119019
0.00366211	-0.119019
0.0302124	-0.119629
0.0442505	-0.121765
0.0534058	-0.124512
0.0515747	-0.126038
0.0485229	-0.125122
0.0332642	-0.122986
-0.00396729	-0.121155
-0.0405884	-0.119019
-0.0640869	-0.116882
-0.0747681	-0.114136
-0.0613403	-0.111084
-0.0509644	-0.107727
-0.0320435	-0.104065
0.012207	-0.101318
0.0466919	-0.0994873
0.045166	-0.0991821
0.0158691	-0.100098
-0.00213623	-0.101929
0.00488281	-0.10376
0.0271606	-0.105591
0.032959	-0.106506
0.0262451	-0.107117
0.0167847	-0.107117
0.00671387	-0.106506
-0.00518799	-0.105286
-0.0186157	-0.10376
-0.0286865	-0.102844
-0.0305176	-0.102234
-0.0204468	-0.103455
0.00579834	-0.105286
0.0296021	-0.107422
0.045166	-0.110168
0.0369263	-0.112915
0.00579834	-0.115356
-0.0265503	-0.117798
-0.0488281	-0.119324
-0.0515747	-0.119934
-0.038147	-0.120239
-0.0250244	-0.119019
-0.00488281	-0.117493
0.0195313	-0.116882
0.0344849	-0.117188
0.0405884	-0.116577
0.0424194	-0.116272
0.0305176	-0.116577
0.00488281	-0.117798
-0.0256348	-0.119934
-0.0341797	-0.121155
-0.0115967	-0.121155
0.00793457	-0.12085
-0.00244141	-0.120239
-0.0338745	-0.119019
-0.043335	-0.117188
-0.0268555	-0.115662
0.00244141	-0.113525
0.0396729	-0.110168
0.0592041	-0.10498
0.0482178	-0.0976563
0.0195313	-0.0894165
-0.0012207	-0.0796509
-0.010376	-0.0689697
-0.0143433	-0.057373
-0.0189209	-0.0463867
-0.0134277	-0.0366211
-0.00244141	-0.0268555
-0.0109863	-0.017395
-0.0216675	-0.0106812
-0.0241089	-0.00671387
-0.0250244	-0.00427246
-0.0180054	-0.00183105
-0.0131226	0.00396729
-0.0109863	0.0134277
0.0012207	0.0253296
0.0213623	0.0387573
0.043335	0.0527954
0.0637817	0.067749
0.0637817	0.083313
0.0454712	0.0985718
0.0180054	0.112305
-0.0192261	0.122375
-0.0466919	0.127869
-0.0540161	0.128174
-0.0540161	0.123901
-0.0442505	0.115967
-0.0411987	0.105286
-0.0326538	0.0906372
0.00213623	0.0741577
0.0390625	0.0561523
0.0534058	0.0366211
0.039978	0.0146484
0.0286865	-0.00793457
0.0268555	-0.0305176
0.0152588	-0.0521851
-0.0137329	-0.0717163
-0.0341797	-0.0888062
-0.0323486	-0.103149
-0.0109863	-0.114441
0.0140381	-0.123596
0.0286865	-0.130005
0.0201416	-0.133362
-0.0143433	-0.134583
-0.0427246	-0.134583
-0.0418091	-0.134583
-0.0302124	-0.134888
-0.0152588	-0.136414
-0.00488281	-0.139465
-0.00213623	-0.143738
0.00305176	-0.148926
0.0106812	-0.154419
0.0335693	-0.161438
0.0683594	-0.169373
0.071106	-0.179443
0.0332642	-0.19165
-0.0146484	-0.204163
-0.0460815	-0.213013
-0.0479126	-0.215454
-0.0274658	-0.209656
-0.0186157	-0.193176
-0.012207	-0.162659
-0.0125122	-0.117188
-0.00518799	-0.0540161
0.00732422	0.027771
0.0271606	0.127869
0.0384521	0.245972
0.0439453	0.379333
0.0366211	0.520325
0.0256348	0.660095
0.0128174	0.790405
-0.00488281	0.903931
-0.0253296	0.991516
-0.0332642	1.04401
-0.0488281	1.05499
-0.0384521	1.02081
-0.0253296	0.941772
-0.0204468	0.82428
-0.0549316	0.678101
-0.0878906	0.514526
-0.107422	0.345764
-0.0579834	0.183105
0.0302124	0.0369263
0.128174	-0.0830078
0.177002	-0.169678
0.189209	-0.222168
0.149536	-0.244141
0.0869751	-0.24353
-0.0378418	-0.227051
-0.149841	-0.201416
-0.19165	-0.174561
-0.083313	-0.152283
0.0683594	-0.137634
0.148621	-0.130615
0.0579834	-0.129089
-0.0878906	-0.132446
-0.198364	-0.13916
-0.188904	-0.146484
-0.0674438	-0.152283
0.138855	-0.15625
0.315247	-0.158386
0.334778	-0.158386
0.178528	-0.15625
-0.0650024	-0.153809
-0.253906	-0.152588
-0.37384	-0.153503
-0.368652	-0.15564
-0.254517	-0.158691
-0.120544	-0.162354
-0.00793457	-0.166626
0.0949097	-0.169373
0.230103	-0.169983
0.359802	-0.169067
0.422058	-0.167236
0.37384	-0.165405
0.24292	-0.163879
0.0393677	-0.161438
-0.205688	-0.157471
-0.396118	-0.152588
-0.475464	-0.149231
-0.424194	-0.146484
-0.296326	-0.144348
-0.128479	-0.142822
0.0497437	-0.142517
0.196228	-0.142212
0.306702	-0.141907
0.357361	-0.141602
0.357666	-0.142822
0.303955	-0.144653
0.194702	-0.144653
0.062561	-0.143433
-0.0695801	-0.142517
-0.171509	-0.142822
-0.226135	-0.142822
-0.245972	-0.140381
-0.218201	-0.134583
-0.150452	-0.128479
-0.0695801	-0.124207
-0.00823975	-0.12207
0.0189209	-0.12085
0.0408936	-0.119324
0.0546265	-0.117493
0.0622559	-0.115967
0.0488281	-0.115662
0.0219727	-0.116577
0.00915527	-0.118103
-0.0131226	-0.119324
-0.0302124	-0.119324
-0.0289917	-0.119019
-0.0253296	-0.118408
0.0137329	-0.116882
0.043335	-0.113831
0.0537109	-0.110779
0.0595093	-0.108643
0.0387573	-0.107117
0.0231934	-0.105591
-0.00701904	-0.103149
-0.0292969	-0.100708
-0.0195313	-0.0991821
-0.0216675	-0.0970459
-0.0250244	-0.093689
-0.0350952	-0.0891113
-0.0292969	-0.0857544
0.000610352	-0.0839233
0.0244141	-0.0830078
0.0357056	-0.0823975
0.038147	-0.0796509
0.022583	-0.0759888
-0.00396729	-0.0723267
-0.0344849	-0.0689697
-0.0476074	-0.0668335
-0.0378418	-0.065918
-0.015564	-0.0650024
0.00183105	-0.062561
0.0115967	-0.0585938
0.0341797	-0.0552368
0.0436401	-0.0524902
0.0286865	-0.0506592
0.0143433	-0.0494385
-0.00183105	-0.0482178
-0.00213623	-0.0469971
0.0146484	-0.0460815
0.0268555	-0.045166
0.00457764	-0.0427246
-0.038147	-0.0396729
-0.0714111	-0.0378418
-0.067749	-0.0375366
-0.0384521	-0.0378418
-0.00823975	-0.038147
0.0167847	-0.038147
0.0274658	-0.0378418
0.0244141	-0.0366211
0.0210571	-0.0350952
0.0088501	-0.0350952
0.0134277	-0.0360107
0.0134277	-0.0363159
-0.0143433	-0.0354004
-0.0189209	-0.0354004
-0.00823975	-0.0357056
0.0112915	-0.03479
0.0402832	-0.0314331
0.0369263	-0.0280762
0.0146484	-0.0259399
0.00244141	-0.0259399
-0.00915527	-0.027771
-0.00793457	-0.0296021
-0.00183105	-0.0323486
-0.012207	-0.0363159
-0.0274658	-0.0402832
-0.0366211	-0.0445557
-0.0387573	-0.0506592
-0.0256348	-0.0579834
-0.00854492	-0.065918
0	-0.0726318
0.0146484	-0.0778198
0.0302124	-0.0814819
0.0360107	-0.0860596
0.0341797	-0.0915527
0.00762939	-0.0970459
-0.00701904	-0.103149
0.00976563	-0.108337
-0.00152588	-0.112915
-0.0234985	-0.117188
-0.0338745	-0.121155
-0.0314331	-0.124817
0.00183105	-0.127563
0.0289917	-0.127563
0.0143433	-0.125122
0.0112915	-0.122681
0.0177002	-0.12085
0.00823975	-0.119019
0.0109863	-0.116577
0.00671387	-0.114136
-0.0088501	-0.11322
-0.015564	-0.114746
-0.0234985	-0.118103
-0.0201416	-0.12085
-0.0259399	-0.122681
-0.0793457	-0.123596
-0.100098	-0.124207
-0.027771	-0.125732
0.0701904	-0.125732
0.137329	-0.123291
0.138855	-0.119629
0.0650024	-0.116882
-0.0167847	-0.115662
-0.0628662	-0.114746
-0.0997925	-0.114441
-0.106201	-0.115356
-0.0662231	-0.117798
-0.00488281	-0.120544
0.0790405	-0.122681
0.154114	-0.124512
0.166931	-0.125427
0.140686	-0.126038
0.0537109	-0.126038
-0.0717163	-0.124817
-0.166931	-0.122986
-0.218811	-0.121155
-0.195313	-0.118713
-0.0991821	-0.115662
-0.0170898	-0.112305
0.0469971	-0.108948
0.108337	-0.106201
0.132141	-0.10498
0.125732	-0.105286
0.0930786	-0.105896
0.0335693	-0.105896
0.000610352	-0.105286
-0.0180054	-0.104675
-0.0552368	-0.103455
-0.0680542	-0.101624
-0.0689697	-0.0991821
-0.0735474	-0.09552
-0.0585938	-0.0900269
-0.0292969	-0.0842285
0.0106812	-0.0796509
0.0561523	-0.0772095
0.0805664	-0.0753784
0.0814819	-0.072937
0.0759888	-0.0714111
0.0463867	-0.0723267
0.0012207	-0.0744629
-0.0305176	-0.0769043
-0.0534058	-0.0793457
-0.0531006	-0.0814819
-0.0405884	-0.0814819
-0.0390625	-0.0802612
-0.0302124	-0.0787354
-0.0247192	-0.0775146
-0.015564	-0.0769043
0.0204468	-0.0772095
0.0473022	-0.0775146
0.0448608	-0.0775146
0.0164795	-0.0778198
-0.0256348	-0.0790405
-0.0375366	-0.0802612
-0.0167847	-0.0799561
0.010376	-0.0790405
0.032959	-0.078125
0.0375366	-0.0765991
0.0332642	-0.0744629
0.0314331	-0.0717163
0.0210571	-0.067749
-0.000305176	-0.0640869
-0.0109863	-0.0616455
-0.0198364	-0.0604248
-0.0402832	-0.0604248
-0.0637817	-0.0601196
-0.0921631	-0.0604248
-0.0933838	-0.0619507
-0.0427246	-0.0653076
0.0247192	-0.0695801
0.0878906	-0.072937
0.114136	-0.0747681
0.0888062	-0.0753784
0.0601196	-0.0756836
0.0323486	-0.0756836
-0.00732422	-0.0750732
-0.0415039	-0.0741577
-0.0616455	-0.0741577
-0.0616455	-0.0741577
-0.0448608	-0.0750732
-0.0384521	-0.0772095
-0.0341797	-0.0796509
0.00213623	-0.0817871
0.0454712	-0.0839233
0.0564575	-0.0857544
0.0436401	-0.0869751
0.0164795	-0.0875854
0.00549316	-0.0869751
0.0128174	-0.0857544
0.0100708	-0.0839233
0.00640869	-0.0839233
0.00823975	-0.0860596
0.000915527	-0.090332
-0.00274658	-0.0949097
0.00518799	-0.0991821
0.00152588	-0.101929
-0.0134277	-0.103149
-0.0332642	-0.101929
-0.0512695	-0.100098
-0.0494385	-0.0985718
-0.045166	-0.09552
-0.032959	-0.0888062
-0.000305176	-0.0793457
0.0271606	-0.0692749
0.0302124	-0.0595093
0.0152588	-0.0512695
0.00946045	-0.0439453
0.0167847	-0.0372314
0.0338745	-0.0314331
0.0393677	-0.0256348
0.038147	-0.0183105
0.0195313	-0.010376
-0.0177002	-0.00366211
-0.045166	0.00274658
-0.0643921	0.00946045
-0.0439453	0.017395
-0.0152588	0.0262451
0.00701904	0.0363159
0.0140381	0.0479126
-0.000915527	0.0598145
0.000915527	0.0708008
-0.00274658	0.0817871
0.0344849	0.093689
0.0634766	0.107727
0.0622559	0.12207
0.0241089	0.133362
-0.00854492	0.139465
-0.00549316	0.141907
0.00488281	0.142517
0.00823975	0.141602
-0.00610352	0.138245
-0.00152588	0.131531
-0.00762939	0.120544
-0.0292969	0.105286
-0.0701904	0.0863647
-0.0823975	0.0650024
-0.0836182	0.0427246
-0.0631714	0.0201416
-0.0393677	-0.00274658
0.00518799	-0.0247192
0.0473022	-0.0454712
0.0796509	-0.0646973
0.0738525	-0.0817871
0.0836182	-0.0958252
0.0726318	-0.106506
0.0500488	-0.114441
0.00701904	-0.120239
-0.0219727	-0.123901
-0.0411987	-0.125732
-0.0436401	-0.126343
-0.0552368	-0.126343
-0.0662231	-0.125732
-0.06073	-0.123596
-0.0274658	-0.12146
0.0115967	-0.119629
0.045166	-0.119324
0.0616455	-0.121765
0.0708008	-0.128479
0.0634766	-0.138855
0.0354004	-0.151062
0.00183105	-0.162964
-0.0323486	-0.170898
-0.0421143	-0.17334
-0.0466919	-0.167542
-0.0387573	-0.149231
-0.0418091	-0.114441
-0.0354004	-0.0619507
-0.0308228	0.0088501
-0.00335693	0.0973511
0.0308228	0.2005
0.06073	0.315247
0.0650024	0.437622
0.0613403	0.559692
0.0439453	0.674744
0.0189209	0.776672
-0.022583	0.859375
-0.0469971	0.917358
-0.0476074	0.94574
-0.0250244	0.940247
-0.0384521	0.898743
-0.0616455	0.823669
-0.0796509	0.719299
-0.0482178	0.592957
-0.0106812	0.454407
0.0180054	0.31311
0.0265503	0.176697
0.0537109	0.0518799
0.0973511	-0.0543213
0.115662	-0.135193
0.115967	-0.189514
0.0857544	-0.218811
0.020752	-0.226746
-0.0827026	-0.218811
-0.169067	-0.2005
-0.172424	-0.177612
-0.0576782	-0.155334
0.0894165	-0.136719
0.133667	-0.123596
0.0445557	-0.116882
-0.0921631	-0.115051
-0.158691	-0.117798
-0.121155	-0.123291
0.00274658	-0.1297
0.158997	-0.135498
0.287781	-0.140076
0.336304	-0.143738
0.300903	-0.146484
0.188904	-0.147705
-0.0549316	-0.145874
-0.396118	-0.142212
-0.71106	-0.13855
-0.807495	-0.135193
-0.613098	-0.132751
-0.245361	-0.131226
0.14801	-0.131226
0.496521	-0.132141
0.736389	-0.133667
0.791626	-0.135803
0.644836	-0.137939
0.349121	-0.139465
0.00732422	-0.140686
-0.269165	-0.140991
-0.416565	-0.140991
-0.433655	-0.139771
-0.366821	-0.136414
-0.259094	-0.131226
-0.133057	-0.125122
-0.0143433	-0.119934
0.0558472	-0.116577
0.0808716	-0.115662
0.0967407	-0.115967
0.107422	-0.116577
0.0924683	-0.118103
0.0579834	-0.121155
0.0518799	-0.122986
0.0915527	-0.122681
0.145874	-0.121155
0.15686	-0.118408
0.123291	-0.114441
0.0701904	-0.108643
-0.000915527	-0.101624
-0.101013	-0.0939941
-0.204773	-0.0875854
-0.269165	-0.0814819
-0.260925	-0.0762939
-0.213623	-0.0732422
-0.146179	-0.0726318
-0.055542	-0.0744629
0.0375366	-0.0769043
0.119629	-0.0784302
0.170898	-0.0799561
0.184937	-0.0814819
0.171814	-0.0836182
0.139465	-0.085144
0.0753784	-0.0866699
-0.00366211	-0.0875854
-0.0646973	-0.0881958
-0.0820923	-0.088501
-0.0610352	-0.0888062
-0.043335	-0.0891113
-0.0402832	-0.0897217
-0.0289917	-0.0897217
0.00274658	-0.0888062
0.0390625	-0.0860596
0.0671387	-0.0814819
0.0534058	-0.0756836
0.017395	-0.0701904
-0.00366211	-0.0646973
-0.015564	-0.0592041
-0.00793457	-0.0531006
-0.0204468	-0.0473022
-0.0354004	-0.043335
-0.0323486	-0.0405884
-0.0152588	-0.038147
0.000915527	-0.0357056
-0.0137329	-0.0341797
-0.0180054	-0.0335693
-0.0109863	-0.0326538
-0.00671387	-0.0314331
-0.0143433	-0.0289917
-0.039978	-0.0262451
-0.0280762	-0.022583
0.00305176	-0.0192261
0.0469971	-0.0158691
0.0650024	-0.0137329
0.0613403	-0.0125122
0.0552368	-0.0119019
0.0323486	-0.0119019
0.0131226	-0.0115967
-0.0210571	-0.0119019
-0.038147	-0.012207
-0.0521851	-0.0128174
-0.0762939	-0.0131226
-0.0897217	-0.0146484
-0.0897217	-0.0158691
-0.0497437	-0.0149536
-0.00213623	-0.0125122
0.0622559	-0.010376
0.117798	-0.00946045
0.136719	-0.00915527
0.115662	-0.00915527
0.0549316	-0.00762939
0.0161743	-0.00518799
-0.00701904	-0.00457764
-0.00946045	-0.00610352
-0.0247192	-0.00854492
-0.0479126	-0.00976563
-0.062561	-0.00946045
-0.0891113	-0.0088501
-0.0805664	-0.00915527
-0.0576782	-0.00976563
-0.010376	-0.00976563
0.032959	-0.0100708
0.0561523	-0.0109863
0.0582886	-0.0134277
0.0256348	-0.0164795
-0.00640869	-0.020752
-0.038147	-0.0271606
-0.0344849	-0.03479
-0.0167847	-0.0427246
-0.00183105	-0.050354
0.0125122	-0.0579834
0.00610352	-0.0650024
0.0238037	-0.0714111
0.0274658	-0.0772095
0.0302124	-0.0817871
0.022583	-0.085144
0.0222778	-0.0881958
0.0308228	-0.090332
0.0115967	-0.0912476
-0.00152588	-0.0915527
-0.015564	-0.0915527
0.000915527	-0.0900269
-0.00366211	-0.0878906
-0.0238037	-0.0866699
-0.0314331	-0.0866699
-0.0106812	-0.0878906
0.0378418	-0.0894165
0.0149536	-0.0912476
-0.0778198	-0.093689
-0.223389	-0.0976563
-0.272217	-0.103149
-0.190735	-0.109558
-0.0271606	-0.114441
0.144043	-0.117188
0.236816	-0.118408
0.285034	-0.118408
0.280151	-0.117798
0.247803	-0.116882
0.1474	-0.114136
0.0158691	-0.110474
-0.101624	-0.107117
-0.167236	-0.10437
-0.167236	-0.101624
-0.129395	-0.0991821
-0.0643921	-0.0973511
-0.0372314	-0.0964355
-0.0424194	-0.0964355
-0.0811768	-0.0970459
-0.0964355	-0.0967407
-0.0802612	-0.0961304
-0.0323486	-0.0942993
0.0320435	-0.0915527
0.0830078	-0.0881958
0.125427	-0.0854492
0.136414	-0.083313
0.11261	-0.0811768
0.0402832	-0.0787354
-0.0292969	-0.0759888
-0.0634766	-0.0738525
-0.0634766	-0.0735474
-0.0485229	-0.0747681
-0.0427246	-0.0772095
-0.0268555	-0.0787354
-0.0167847	-0.0790405
0.00183105	-0.0784302
0.0152588	-0.0769043
0.0317383	-0.0747681
0.0442505	-0.0720215
0.0335693	-0.0689697
0.0241089	-0.0665283
0.0125122	-0.0665283
-0.0012207	-0.0686646
-0.0292969	-0.071106
-0.0595093	-0.0723267
-0.0665283	-0.072937
-0.0534058	-0.0741577
-0.0112915	-0.0759888
0.0387573	-0.0775146
0.0799561	-0.078125
0.0866699	-0.0769043
0.0616455	-0.0750732
0.0350952	-0.0738525
0.00701904	-0.0726318
-0.0131226	-0.0723267
-0.0448608	-0.0741577
-0.0585938	-0.0765991
-0.0405884	-0.0790405
-0.0231934	-0.0811768
-0.0012207	-0.0839233
-0.0119019	-0.0860596
-0.0228882	-0.0872803
-0.00640869	-0.0869751
0.0204468	-0.0854492
0.0463867	-0.0842285
0.0384521	-0.0839233
0.0161743	-0.0839233
0.00305176	-0.0836182
-0.00274658	-0.0814819
-0.00640869	-0.0784302
0.00701904	-0.0756836
0.000915527	-0.0741577
-0.0253296	-0.0732422
-0.0518799	-0.0720215
-0.0592041	-0.0692749
-0.03479	-0.0650024
-0.020752	-0.0613403
-0.00701904	-0.0592041
-0.0112915	-0.0582886
0.00671387	-0.0576782
0.0234985	-0.0570679
0.0360107	-0.0570679
0.0469971	-0.0585938
0.0408936	-0.0604248
0.0488281	-0.062561
0.0335693	-0.065918
-0.00335693	-0.0708008
-0.0384521	-0.0762939
-0.0598145	-0.0802612
-0.0579834	-0.0817871
-0.0396729	-0.0823975
-0.0115967	-0.0830078
0.0106812	-0.083313
0.0424194	-0.0830078
0.0491333	-0.0817871
0.0442505	-0.0802612
0.0378418	-0.0790405
0.0149536	-0.078125
0.00244141	-0.0787354
0.00518799	-0.0805664
0.0106812	-0.0817871
0.000610352	-0.0823975
-0.0192261	-0.0839233
-0.0378418	-0.0854492
-0.0418091	-0.0860596
-0.038147	-0.0857544
-0.0350952	-0.0848389
-0.0259399	-0.0845337
-0.0112915	-0.0839233
-0.00518799	-0.0823975
-0.000610352	-0.0808716
0.0146484	-0.0799561
0.0289917	-0.0790405
0.0350952	-0.0765991
0.0341797	-0.0717163
0.0210571	-0.0650024
0.0289917	-0.0570679
0.0317383	-0.0479126
0.0253296	-0.0372314
0.0177002	-0.0253296
-0.0161743	-0.0134277
-0.0534058	-0.00335693
-0.0830078	0.00457764
-0.0921631	0.0115967
-0.0741577	0.0183105
-0.0369263	0.0253296
0.0183105	0.0314331
0.0640869	0.0375366
0.0817871	0.0439453
0.0805664	0.0537109
0.0662231	0.0671387
0.039978	0.0823975
0.00518799	0.0985718
-0.0271606	0.114746
-0.0424194	0.130005
-0.043335	0.143433
-0.0305176	0.152588
-0.00915527	0.156555
-0.00152588	0.15564
-0.00549316	0.150452
-0.0170898	0.142517
-0.0219727	0.131531
-0.0177002	0.117493
-0.00244141	0.100708
-0.000610352	0.0830078
0.00305176	0.0643921
0.0146484	0.0448608
0.0292969	0.0250244
0.0469971	0.00518799
0.043335	-0.0146484
0.022583	-0.0354004
-0.00366211	-0.0564575
-0.0256348	-0.0759888
-0.0344849	-0.0930786
-0.0326538	-0.107422
-0.0289917	-0.118408
-0.0238037	-0.125427
-0.0170898	-0.129089
-0.00671387	-0.130615
0.0146484	-0.130615
0.0311279	-0.128784
0.0354004	-0.125122
0.0308228	-0.121765
0.0109863	-0.120239
-0.0186157	-0.121155
-0.0311279	-0.125122
-0.0119019	-0.132751
0.0271606	-0.143127
0.0424194	-0.155334
0.00518799	-0.167847
-0.0378418	-0.179749
-0.050354	-0.188599
-0.0283813	-0.191956
0.00518799	-0.187683
0.0216675	-0.171204
0.0106812	-0.13916
0.00793457	-0.0918579
0.0128174	-0.0292969
0.00701904	0.0488281
-0.00549316	0.143433
-0.0213623	0.254517
-0.0271606	0.378418
-0.00793457	0.507813
0.0247192	0.63446
0.0442505	0.752869
0.0543213	0.855713
0.0430298	0.935974
0.0256348	0.986633
0.00213623	1.00006
-0.0375366	0.973206
-0.0738525	0.906677
-0.0872803	0.803528
-0.0845337	0.670776
-0.0805664	0.519714
-0.0787354	0.361938
-0.0662231	0.20813
-0.0201416	0.067749
0.0598145	-0.0521851
0.146179	-0.145264
0.209351	-0.206299
0.229187	-0.236511
0.184631	-0.24231
0.0634766	-0.230713
-0.0869751	-0.20813
-0.172424	-0.180969
-0.136108	-0.154419
-0.0280762	-0.133362
0.0314331	-0.121155
-0.0335693	-0.116882
-0.175781	-0.118713
-0.277405	-0.125427
-0.244751	-0.135803
-0.0534058	-0.147095
0.224609	-0.154724
0.455017	-0.158691
0.496521	-0.159912
0.332031	-0.158997
0.0793457	-0.155945
-0.151978	-0.151672
-0.335693	-0.147095
-0.473022	-0.144043
-0.531311	-0.142212
-0.472412	-0.141602
-0.296631	-0.142212
-0.0387573	-0.144043
0.253296	-0.146484
0.511475	-0.149231
0.665894	-0.150757
0.655823	-0.150452
0.480957	-0.149231
0.185852	-0.14801
-0.155945	-0.146179
-0.441589	-0.142822
-0.585632	-0.138855
-0.567627	-0.135498
-0.427856	-0.132141
-0.224609	-0.129089
-0.0180054	-0.126953
0.161438	-0.126038
0.299377	-0.126343
0.379944	-0.126038
0.390015	-0.125122
0.319824	-0.124207
0.196838	-0.123291
0.0558472	-0.122681
-0.0683594	-0.122375
-0.155029	-0.121765
-0.187683	-0.120239
-0.172729	-0.118713
-0.124207	-0.116577
-0.0881958	-0.113831
-0.0717163	-0.111084
-0.0579834	-0.107422
-0.0170898	-0.10376
0.0296021	-0.101318
0.0476074	-0.100403
0.0253296	-0.0997925
-0.00244141	-0.0964355
-0.0125122	-0.0909424
-0.0250244	-0.0863647
-0.0396729	-0.083313
-0.0552368	-0.0808716
-0.0518799	-0.0787354
-0.0250244	-0.0772095
0.00183105	-0.0759888
0.0372314	-0.0747681
0.0595093	-0.0741577
0.0714111	-0.0744629
0.0830078	-0.0750732
0.0848389	-0.0759888
0.0674438	-0.0765991
0.0256348	-0.0762939
-0.0189209	-0.0762939
-0.0375366	-0.0772095
-0.0454712	-0.0778198
-0.0549316	-0.0759888
-0.0543213	-0.0723267
-0.055542	-0.0686646
-0.055542	-0.0656128
-0.0317383	-0.062561
0.00762939	-0.0601196
0.0543213	-0.0579834
0.102539	-0.055542
0.124817	-0.0521851
0.108643	-0.0485229
0.0683594	-0.0457764
-0.000915527	-0.0442505
-0.0546265	-0.0424194
-0.067749	-0.0405884
-0.0842285	-0.0387573
-0.0827026	-0.0366211
-0.0561523	-0.032959
-0.0335693	-0.0286865
0.000915527	-0.0250244
0.0213623	-0.0219727
0.0180054	-0.0198364
0.0247192	-0.0177002
0.0167847	-0.0152588
0.00762939	-0.0131226
0.027771	-0.012207
0.0262451	-0.0112915
-0.00335693	-0.00946045
-0.0369263	-0.00823975
-0.0646973	-0.00762939
-0.0518799	-0.00701904
-0.0210571	-0.00579834
-0.0146484	-0.00335693
0.000915527	-0.000915527
0.0296021	0.0012207
0.0421143	0.00244141
0.0570679	0.00244141
0.0531006	0.00183105
0.0387573	0.0012207
0.0396729	0.00183105
0.0283813	0.00366211
-0.010376	0.00488281
-0.0476074	0.00457764
-0.0811768	0.00213623
-0.0848389	-0.000915527
-0.0588989	-0.00335693
-0.0244141	-0.00671387
0.00488281	-0.012207
0.0442505	-0.0195313
0.0595093	-0.0283813
0.0540161	-0.038147
0.0485229	-0.0479126
0.0524902	-0.0567627
0.065918	-0.0634766
0.00244141	-0.0674438
-0.127869	-0.0698853
-0.146484	-0.071106
-0.0637817	-0.0714111
0.0143433	-0.0714111
0.0238037	-0.0726318
0.00213623	-0.0769043
0.00915527	-0.0836182
0.0415039	-0.0900269
0.050354	-0.0949097
0.043335	-0.0997925
0.0280762	-0.10498
0.0384521	-0.109558
0.0546265	-0.112
0.0665283	-0.112305
0.0131226	-0.110168
-0.067749	-0.106506
-0.123291	-0.101929
-0.103455	-0.0976563
-0.055542	-0.0946045
-0.00305176	-0.0939941
0.0299072	-0.0964355
0.0552368	-0.100403
0.03479	-0.105286
-0.0149536	-0.109558
-0.0427246	-0.11322
-0.0265503	-0.116882
-0.177002	-0.12085
-0.257263	-0.123596
-0.0704956	-0.125122
0.216064	-0.124817
0.339355	-0.123291
0.275574	-0.12207
0.149536	-0.121155
0.067749	-0.12085
-0.0186157	-0.119934
-0.1297	-0.118713
-0.21698	-0.117188
-0.213318	-0.115356
-0.158386	-0.113525
-0.0320435	-0.112305
0.101624	-0.112
0.162964	-0.111389
0.125122	-0.109863
0.0494385	-0.106506
-0.0238037	-0.102844
-0.0463867	-0.100098
-0.0469971	-0.0985718
-0.0457764	-0.0979614
-0.0228882	-0.0973511
0.00976563	-0.0961304
0.0308228	-0.0958252
0.0152588	-0.0964355
-0.00427246	-0.0967407
-0.0112915	-0.0970459
0.0125122	-0.0982666
0.0161743	-0.100098
0.00671387	-0.102234
-0.0109863	-0.103149
0.00244141	-0.102844
0.0119019	-0.101929
-0.00488281	-0.100403
-0.0317383	-0.0982666
-0.0518799	-0.0967407
-0.062561	-0.0961304
-0.0610352	-0.09552
-0.0378418	-0.0946045
0.0140381	-0.0939941
0.0650024	-0.0933838
0.0811768	-0.0942993
0.0601196	-0.0967407
0.0299072	-0.0997925
0.0149536	-0.102844
0.0228882	-0.10437
0.00274658	-0.104065
-0.0186157	-0.101318
-0.0341797	-0.0979614
-0.0228882	-0.0946045
-0.0131226	-0.0918579
-0.00366211	-0.088501
-0.0164795	-0.085144
-0.0238037	-0.0820923
-0.015564	-0.0808716
-0.00335693	-0.0820923
0.0244141	-0.0860596
0.0350952	-0.090332
0.0366211	-0.0933838
0.0317383	-0.0958252
0.0308228	-0.098877
0.020752	-0.102539
0.00732422	-0.104065
-0.0299072	-0.103149
-0.0509644	-0.100708
-0.0558472	-0.0973511
-0.0482178	-0.093689
-0.0204468	-0.0906372
-0.0088501	-0.0897217
0.000915527	-0.0897217
-0.00640869	-0.0891113
0.000305176	-0.0875854
0.00579834	-0.0860596
0.0192261	-0.085144
0.0247192	-0.0848389
0.0180054	-0.085144
0.0302124	-0.0857544
0.0256348	-0.0854492
0.0357056	-0.085144
0.0112915	-0.085144
0.0109863	-0.0863647
0.00183105	-0.088501
-0.00915527	-0.090332
-0.0189209	-0.0915527
-0.0305176	-0.0921631
-0.0186157	-0.0933838
-0.0292969	-0.0946045
-0.0256348	-0.0946045
-0.0369263	-0.0933838
-0.020752	-0.0921631
-0.012207	-0.090332
-0.00366211	-0.088501
-0.0106812	-0.0866699
-0.017395	-0.0857544
-0.00854492	-0.0857544
0.0137329	-0.0860596
0.0323486	-0.0860596
0.0418091	-0.0860596
0.0552368	-0.0869751
0.0509644	-0.088501
0.050354	-0.0906372
0.0228882	-0.0927734
-0.00305176	-0.0939941
-0.0299072	-0.0946045
-0.0283813	-0.0949097
-0.00823975	-0.0949097
0.000915527	-0.0946045
-0.0146484	-0.0939941
-0.0534058	-0.0933838
-0.0512695	-0.0915527
-0.0320435	-0.0897217
-0.00732422	-0.0878906
0.000305176	-0.0857544
0	-0.0817871
0.00793457	-0.0762939
0.0180054	-0.0704956
0.0390625	-0.0631714
0.0454712	-0.0543213
0.0445557	-0.0439453
0.0289917	-0.0326538
0.00152588	-0.0213623
-0.0332642	-0.0112915
-0.0515747	-0.00427246
-0.0512695	0.000610352
-0.0216675	0.00610352
0.000915527	0.0125122
0.0250244	0.0192261
0.0366211	0.0256348
0.0500488	0.0332642
0.0521851	0.043335
0.0341797	0.0558472
-0.000305176	0.0686646
-0.0512695	0.0808716
-0.0894165	0.0939941
-0.102539	0.108643
-0.0723267	0.122375
-0.0378418	0.132446
0.00549316	0.137329
0.0463867	0.138245
0.0653076	0.135498
0.0924683	0.128479
0.0772095	0.117188
0.0595093	0.10498
0.0228882	0.0912476
-0.0259399	0.0747681
-0.0689697	0.0549316
-0.107117	0.0332642
-0.0897217	0.0119019
-0.0439453	-0.00823975
0.0167847	-0.027771
0.0531006	-0.0460815
0.0653076	-0.0628662
0.0631714	-0.078125
0.0424194	-0.0918579
0.0219727	-0.103455
0.00518799	-0.112
-0.00183105	-0.117493
-0.00640869	-0.12207
-0.0149536	-0.126343
-0.0219727	-0.130615
-0.0210571	-0.132141
-0.0289917	-0.131226
-0.0183105	-0.130005
-0.0186157	-0.1297
-0.0213623	-0.130615
-0.03479	-0.133362
0.00915527	-0.138245
0.0561523	-0.14679
0.0827026	-0.158081
0.0460815	-0.171204
0.0119019	-0.185242
-0.0204468	-0.198059
-0.0485229	-0.206604
-0.0772095	-0.20752
-0.0900269	-0.195923
-0.0708008	-0.166626
-0.0241089	-0.119324
0.0152588	-0.0537109
0.0500488	0.0299072
0.0637817	0.131836
0.038147	0.252075
0.0140381	0.386658
0.0100708	0.527344
0.0341797	0.664978
0.0674438	0.791016
0.0738525	0.897217
0.0582886	0.977478
0.0149536	1.0257
-0.0308228	1.03607
-0.0686646	1.00372
-0.0967407	0.92865
-0.110474	0.81543
-0.119019	0.673523
-0.116882	0.514526
-0.10498	0.350952
-0.0671387	0.193481
0.0204468	0.0524902
0.153198	-0.0653076
0.272217	-0.155334
0.308228	-0.214233
0.231628	-0.242004
0.0769043	-0.243835
-0.0942993	-0.227966
-0.214844	-0.203247
-0.231323	-0.176392
-0.137634	-0.151672
-0.0140381	-0.133057
0.057373	-0.123291
0.00396729	-0.12085
-0.0918579	-0.122986
-0.139771	-0.129089
-0.0912476	-0.137634
0.0631714	-0.14679
0.243225	-0.154114
0.362549	-0.158997
0.322876	-0.162048
0.13916	-0.16449
-0.106201	-0.165405
-0.309143	-0.16571
-0.418701	-0.165405
-0.41687	-0.165405
-0.305786	-0.1651
-0.13031	-0.163879
0.0457764	-0.162048
0.198059	-0.159302
0.322571	-0.155029
0.406189	-0.150146
0.427551	-0.145569
0.342102	-0.140381
0.147095	-0.135498
-0.103149	-0.131836
-0.340271	-0.1297
-0.46875	-0.128174
-0.473633	-0.128174
-0.360413	-0.129395
-0.178833	-0.131226
0.00976563	-0.133057
0.176392	-0.134277
0.30304	-0.135498
0.363159	-0.137024
0.365906	-0.136719
0.299988	-0.134888
0.17395	-0.133057
0.0537109	-0.132751
-0.0534058	-0.133667
-0.151672	-0.135498
-0.222473	-0.137939
-0.249939	-0.140076
-0.220947	-0.142212
-0.155029	-0.142822
-0.101013	-0.141296
-0.0311279	-0.13855
0.0354004	-0.135193
0.0814819	-0.131226
0.108643	-0.126038
0.104675	-0.119934
0.0952148	-0.113525
0.0765991	-0.107727
0.0140381	-0.102844
-0.0378418	-0.0991821
-0.0537109	-0.0967407
-0.0442505	-0.09552
-0.0234985	-0.0964355
-0.0390625	-0.0976563
-0.0494385	-0.0979614
-0.032959	-0.0967407
-0.0289917	-0.0949097
-0.00518799	-0.0924683
0.0149536	-0.090332
0.0268555	-0.0888062
0.0549316	-0.0869751
0.0628662	-0.0863647
0.0592041	-0.0857544
0.0476074	-0.0842285
0.0274658	-0.0820923
0.00488281	-0.0805664
-0.0204468	-0.0793457
-0.0378418	-0.0778198
-0.0332642	-0.0759888
-0.0265503	-0.0741577
-0.0268555	-0.071106
-0.0238037	-0.0671387
-0.00976563	-0.0628662
0.00640869	-0.0588989
0.0241089	-0.0543213
0.0488281	-0.0494385
0.0524902	-0.0448608
0.0448608	-0.0415039
0.0167847	-0.0390625
-0.0286865	-0.0369263
-0.0561523	-0.03479
-0.0765991	-0.0338745
-0.0869751	-0.0344849
-0.0756836	-0.0360107
-0.0454712	-0.0372314
0.0115967	-0.0378418
0.055542	-0.0390625
0.0762939	-0.0402832
0.0802612	-0.039978
0.062561	-0.0375366
0.0314331	-0.0338745
-0.00610352	-0.0292969
-0.0405884	-0.0244141
-0.0515747	-0.0195313
-0.0442505	-0.0149536
-0.0302124	-0.010376
-0.00274658	-0.00610352
0.0271606	-0.00244141
0.0357056	0
0.012207	0.0012207
-0.0170898	0.00213623
-0.0204468	0.00244141
0.00732422	0.00274658
0.0283813	0.00152588
0.0314331	-0.00152588
0.0305176	-0.00793457
0.027771	-0.0152588
0.0164795	-0.0204468
0.000610352	-0.0238037
-0.0115967	-0.0262451
-0.0280762	-0.0296021
-0.050354	-0.0338745
-0.0708008	-0.0375366
-0.0656128	-0.0396729
-0.0286865	-0.039978
0.00152588	-0.0396729
0.0280762	-0.0411987
0.0491333	-0.0454712
0.0622559	-0.0518799
0.0650024	-0.0604248
0.0354004	-0.0704956
0.00793457	-0.0817871
-0.0100708	-0.0933838
-0.0302124	-0.102234
-0.0445557	-0.109253
-0.0482178	-0.115051
-0.0378418	-0.120239
-0.0238037	-0.124512
-0.00549316	-0.126648
0.0119019	-0.127563
0.0289917	-0.127258
0.0463867	-0.125122
0.0320435	-0.122375
0.0170898	-0.12146
0.017395	-0.12207
0.0189209	-0.123291
0.0177002	-0.123901
-0.00579834	-0.123901
-0.0457764	-0.124207
-0.0714111	-0.126038
-0.0750732	-0.128174
-0.0473022	-0.1297
-0.0210571	-0.131531
-0.0244141	-0.134888
-0.0216675	-0.137634
0.0201416	-0.13916
0.0613403	-0.13855
0.0732422	-0.137939
0.0808716	-0.137634
0.0894165	-0.136414
0.0836182	-0.133972
0.0509644	-0.13092
-0.0299072	-0.127869
-0.124207	-0.124512
-0.168762	-0.121155
-0.148926	-0.118103
-0.0778198	-0.114746
0.0271606	-0.111389
0.133362	-0.109253
0.194702	-0.109863
0.153503	-0.112
0.0292969	-0.113831
-0.083313	-0.114136
-0.1297	-0.11322
-0.115662	-0.111694
-0.0704956	-0.110474
-0.00915527	-0.109863
0.0588989	-0.110474
0.107727	-0.110779
0.103149	-0.109863
0.0628662	-0.108032
0.0112915	-0.106812
-0.043335	-0.105896
-0.0930786	-0.10498
-0.109253	-0.10376
-0.0952148	-0.101929
-0.0473022	-0.100098
0.00213623	-0.0979614
0.0415039	-0.09552
0.0714111	-0.0924683
0.0811768	-0.0891113
0.0692749	-0.0869751
0.0405884	-0.0872803
0.0012207	-0.0894165
-0.0357056	-0.0921631
-0.0640869	-0.0946045
-0.0839233	-0.09552
-0.0683594	-0.0952148
-0.0320435	-0.0939941
0.0115967	-0.0921631
0.0564575	-0.0897217
0.0787354	-0.0866699
0.0915527	-0.083313
0.0854492	-0.0808716
0.0564575	-0.0793457
0.0192261	-0.0784302
-0.0210571	-0.078125
-0.0610352	-0.0787354
-0.0900269	-0.0802612
-0.102844	-0.0827026
-0.0909424	-0.0854492
-0.0576782	-0.0872803
-0.0247192	-0.0869751
0.00732422	-0.085144
0.0292969	-0.083313
0.0512695	-0.0823975
0.0585938	-0.0814819
0.0473022	-0.0808716
0.0427246	-0.0808716
0.0210571	-0.0817871
0.0271606	-0.0842285
0.0280762	-0.0881958
0.00640869	-0.0927734
-0.022583	-0.0961304
-0.0411987	-0.098877
-0.0402832	-0.101318
-0.0210571	-0.103455
-0.0137329	-0.10437
-0.020752	-0.10376
-0.0161743	-0.101624
0.00946045	-0.098877
0.0405884	-0.09552
0.0582886	-0.0921631
0.0454712	-0.0891113
0.0183105	-0.0878906
-0.00946045	-0.0894165
-0.0411987	-0.0915527
-0.0643921	-0.0933838
-0.0674438	-0.0946045
-0.0552368	-0.0961304
-0.020752	-0.0979614
0.0305176	-0.0994873
0.0549316	-0.100098
0.0576782	-0.0997925
0.0506592	-0.098877
0.0393677	-0.0976563
0.038147	-0.0961304
0.0198364	-0.0952148
-0.0198364	-0.0952148
-0.0588989	-0.0967407
-0.0830078	-0.098877
-0.0775146	-0.100403
-0.0628662	-0.101624
-0.0524902	-0.103149
-0.0216675	-0.10498
0.0302124	-0.105896
0.067749	-0.106201
0.0817871	-0.105896
0.0811768	-0.105286
0.0811768	-0.104065
0.0692749	-0.101624
0.0219727	-0.0985718
-0.0274658	-0.0961304
-0.0546265	-0.0942993
-0.0592041	-0.0933838
-0.0500488	-0.0921631
-0.0515747	-0.0909424
-0.0512695	-0.0891113
-0.0292969	-0.0860596
-0.00305176	-0.0823975
0.0189209	-0.0778198
0.0311279	-0.071106
0.0326538	-0.0631714
0.0344849	-0.0546265
0.0253296	-0.045166
0.00305176	-0.0354004
-0.020752	-0.0262451
-0.0265503	-0.0177002
-0.00701904	-0.0088501
0.0115967	0.000610352
0.00915527	0.0100708
0.00946045	0.020752
0.0125122	0.0314331
0.0088501	0.043335
-0.00793457	0.0576782
-0.0219727	0.0735474
-0.0204468	0.0891113
-0.0170898	0.103455
-0.0271606	0.116272
-0.0311279	0.126953
-0.0167847	0.134583
0.00701904	0.13855
0.0259399	0.13855
0.0360107	0.134888
0.0338745	0.127869
0.0286865	0.119019
0.0204468	0.107422
0.00335693	0.0930786
-0.00457764	0.0769043
-0.000610352	0.0588989
0.000305176	0.0393677
-0.00823975	0.0180054
-0.0234985	-0.00335693
-0.0299072	-0.0247192
-0.022583	-0.0454712
-0.0164795	-0.0640869
-0.0134277	-0.0796509
0.000610352	-0.0918579
0.0158691	-0.101013
0.0234985	-0.107422
0.0308228	-0.112
0.0439453	-0.114136
0.055542	-0.115356
0.0314331	-0.116577
-0.0247192	-0.118408
-0.0637817	-0.120544
-0.0643921	-0.124207
-0.0466919	-0.130005
-0.0137329	-0.136719
0.00732422	-0.143738
0.00518799	-0.151672
0.00213623	-0.161133
0.012207	-0.172119
0.0268555	-0.181274
0.0421143	-0.187378
0.0411987	-0.187988
0.0128174	-0.181885
-0.0286865	-0.168152
-0.0619507	-0.144348
-0.0619507	-0.106506
-0.0286865	-0.0531006
0.00671387	0.0170898
0.0350952	0.103149
0.0482178	0.204163
0.0378418	0.319824
0.0149536	0.446472
-0.00457764	0.576477
-0.0177002	0.703125
-0.0210571	0.819397
-0.0167847	0.918579
-0.00427246	0.991211
-0.00152588	1.02783
0.0012207	1.02325
-0.00305176	0.976257
0.00305176	0.889282
0.00793457	0.767517
-0.0216675	0.620117
-0.0656128	0.460205
-0.0863647	0.299683
-0.0665283	0.148926
0.00152588	0.0170898
0.0900269	-0.088501
0.158691	-0.162659
0.201721	-0.205383
0.180359	-0.221558
0.0842285	-0.21637
-0.055542	-0.197449
-0.210571	-0.172119
-0.26947	-0.147095
-0.188293	-0.127563
-0.0256348	-0.115051
0.100098	-0.108948
0.088501	-0.108643
0.00701904	-0.112915
-0.0482178	-0.120544
-0.0286865	-0.128784
0.0692749	-0.134277
0.200806	-0.136719
0.266724	-0.138245
0.186462	-0.138855
0.0177002	-0.137939
-0.126038	-0.135803
-0.213318	-0.134277
-0.270386	-0.133057
-0.335388	-0.133057
-0.336304	-0.133057
-0.229492	-0.133362
-0.0558472	-0.134888
0.132446	-0.136414
0.298157	-0.137634
0.422974	-0.138245
0.47821	-0.139465
0.402832	-0.140686
0.220947	-0.140686
-0.032959	-0.139465
-0.262146	-0.137329
-0.4245	-0.134888
-0.453186	-0.132446
-0.36438	-0.13031
-0.1828	-0.128784
-0.000915527	-0.125732
0.153198	-0.121155
0.244446	-0.116882
0.299072	-0.113525
0.279236	-0.110474
0.203247	-0.106812
0.0708008	-0.103455
-0.0537109	-0.101929
-0.123596	-0.101929
-0.150146	-0.102234
-0.121155	-0.102844
-0.0564575	-0.10376
0.00793457	-0.10376
0.0646973	-0.103149
0.057373	-0.102539
0.0244141	-0.101624
-0.0134277	-0.101318
-0.0576782	-0.100708
-0.0942993	-0.0976563
-0.121765	-0.0930786
-0.108032	-0.0888062
-0.0576782	-0.0857544
-0.012207	-0.083313
0.0152588	-0.0811768
0.0234985	-0.0790405
0.0195313	-0.0772095
0.0372314	-0.0759888
0.0415039	-0.0756836
0.0540161	-0.0765991
0.0457764	-0.0772095
0.0305176	-0.0759888
0.0112915	-0.0732422
0.00854492	-0.0701904
0.0125122	-0.0668335
0.0238037	-0.0634766
0.0186157	-0.0588989
0.015564	-0.0537109
0.00579834	-0.0500488
-0.00183105	-0.0469971
-0.0131226	-0.0445557
-0.0088501	-0.0424194
0.00152588	-0.0402832
-0.00152588	-0.0390625
-0.0204468	-0.0384521
-0.0350952	-0.0393677
-0.0204468	-0.0405884
0.0161743	-0.039978
0.0506592	-0.0372314
0.057373	-0.0332642
0.0259399	-0.0296021
-0.0100708	-0.0268555
-0.0311279	-0.0250244
-0.0369263	-0.0231934
-0.043335	-0.0204468
-0.0476074	-0.0170898
-0.0561523	-0.0134277
-0.0457764	-0.00915527
-0.0210571	-0.00518799
-0.00396729	-0.00183105
0.0137329	0.000915527
0.0643921	0.00305176
0.098877	0.00427246
0.124207	0.00518799
0.0924683	0.00579834
0.00671387	0.00640869
-0.0570679	0.00640869
-0.102234	0.00488281
-0.108032	0.00396729
-0.0662231	0.00427246
-0.0448608	0.00549316
-0.0213623	0.00671387
0.00854492	0.00793457
0.0158691	0.0088501
0.0241089	0.0109863
0.0268555	0.0137329
0.0256348	0.0161743
0.0479126	0.0177002
0.0500488	0.0198364
0.0338745	0.0222778
0.00671387	0.0247192
-0.0427246	0.0262451
-0.0894165	0.0271606
-0.0717163	0.0274658
-0.0253296	0.0268555
0.0158691	0.0256348
0.0430298	0.0244141
0.0405884	0.0216675
0.045166	0.0167847
0.0646973	0.0119019
0.0552368	0.00671387
0.0421143	0.00152588
0.0213623	-0.00488281
-0.0222778	-0.0119019
-0.0537109	-0.0195313
-0.0735474	-0.0271606
-0.0820923	-0.0350952
-0.0558472	-0.043335
-0.0253296	-0.0509644
0.00335693	-0.057373
0.0299072	-0.0622559
0.0305176	-0.0671387
0.0259399	-0.0717163
0.0204468	-0.0753784
-0.0332642	-0.0775146
-0.017395	-0.078125
0.197754	-0.0784302
0.256042	-0.0802612
-0.0314331	-0.0836182
-0.352478	-0.088501
-0.320129	-0.0930786
0.0143433	-0.0958252
0.290222	-0.0967407
0.249329	-0.0970459
0.0817871	-0.0976563
-0.0753784	-0.098877
-0.197754	-0.0991821
-0.292664	-0.0973511
-0.267334	-0.0939941
-0.121155	-0.0900269
0.0875854	-0.0869751
0.223999	-0.0854492
0.245361	-0.085144
0.185852	-0.0866699
0.115051	-0.0881958
0.0469971	-0.0875854
0.0228882	-0.0857544
-0.0350952	-0.0839233
-0.0854492	-0.0830078
-0.108337	-0.0817871
-0.0915527	-0.0802612
-0.0408936	-0.0784302
0.0436401	-0.0756836
0.057373	-0.0732422
0.0411987	-0.0714111
-0.03479	-0.0704956
-0.0842285	-0.0708008
-0.0912476	-0.0723267
-0.0286865	-0.0753784
0.00671387	-0.0790405
0.0527954	-0.0823975
0.0540161	-0.0836182
0.065918	-0.0839233
0.0369263	-0.0842285
0.00244141	-0.0848389
-0.0360107	-0.085144
-0.0112915	-0.0836182
0.00732422	-0.0808716
0.0244141	-0.0775146
0.0012207	-0.0747681
-0.0195313	-0.0726318
-0.0280762	-0.0726318
-0.0308228	-0.0735474
-0.039978	-0.0756836
-0.0256348	-0.0784302
0.000305176	-0.0799561
0.0350952	-0.0799561
0.0488281	-0.0790405
0.0500488	-0.078125
0.0646973	-0.0765991
0.0372314	-0.0744629
0.0183105	-0.0717163
0.00640869	-0.0686646
0.00610352	-0.0656128
-0.022583	-0.0631714
-0.0601196	-0.0610352
-0.0973511	-0.0598145
-0.0997925	-0.0585938
-0.088501	-0.0582886
-0.0552368	-0.0592041
-0.0213623	-0.06073
0.00793457	-0.0613403
0.0479126	-0.0604248
0.0595093	-0.0588989
0.0650024	-0.0582886
0.0662231	-0.057373
0.0665283	-0.0567627
0.0546265	-0.0558472
0.0372314	-0.0546265
0.0238037	-0.0546265
0.00152588	-0.0564575
-0.0012207	-0.0576782
-0.0360107	-0.0582886
-0.0485229	-0.0592041
-0.0759888	-0.0610352
-0.0848389	-0.0622559
-0.0805664	-0.0628662
-0.0363159	-0.0637817
0.00823975	-0.0643921
0.0280762	-0.0640869
0.0189209	-0.0628662
0.0164795	-0.0619507
0.050354	-0.0613403
0.0701904	-0.0613403
0.0634766	-0.0619507
0.0259399	-0.0622559
-0.00305176	-0.0622559
-0.0198364	-0.0628662
-0.00854492	-0.0640869
-0.00518799	-0.065918
0.000915527	-0.0680542
-0.000610352	-0.0708008
-0.00640869	-0.0732422
-0.0137329	-0.0744629
-0.0128174	-0.0741577
0.00457764	-0.072937
0.00213623	-0.0720215
0.00305176	-0.0714111
-0.00396729	-0.0704956
-0.00976563	-0.0692749
-0.0115967	-0.0683594
-0.0259399	-0.0671387
-0.0195313	-0.0665283
-0.0106812	-0.0668335
-0.00823975	-0.0671387
-0.0119019	-0.067749
-0.0149536	-0.0689697
0.00305176	-0.0695801
0.00732422	-0.0689697
0.0131226	-0.0662231
-0.00518799	-0.0622559
0.00335693	-0.0567627
-0.00152588	-0.0497437
0.00488281	-0.0421143
0.00183105	-0.0341797
0.0128174	-0.0250244
0.0177002	-0.0149536
0.0204468	-0.00610352
0.020752	0.0012207
0.0219727	0.00671387
0.0189209	0.0125122
0.00183105	0.0195313
-0.0186157	0.0283813
-0.0219727	0.0390625
-0.0213623	0.0509644
-0.0119019	0.0646973
-0.0311279	0.0790405
-0.0167847	0.0939941
-0.0192261	0.109253
-0.00335693	0.125122
0.0106812	0.140076
0.0253296	0.151978
0.0354004	0.158691
0.0344849	0.159607
0.0244141	0.15625
0.0112915	0.149841
0.00854492	0.140991
0.010376	0.129089
-0.00579834	0.113831
-0.0268555	0.0961304
-0.0411987	0.0769043
-0.0274658	0.0567627
-0.0109863	0.0363159
-0.00152588	0.0152588
-0.00183105	-0.00549316
0.00305176	-0.0250244
0.00305176	-0.0430298
0.00183105	-0.0595093
-0.0201416	-0.0738525
-0.0250244	-0.0857544
-0.00610352	-0.0949097
0.0167847	-0.100403
0.0292969	-0.10376
0.0180054	-0.105286
0.00366211	-0.106812
-0.020752	-0.108643
-0.0384521	-0.110474
-0.0247192	-0.110474
-0.00579834	-0.109863
0.0296021	-0.109558
0.0326538	-0.111389
0.0375366	-0.115967
0.0161743	-0.123596
0.00671387	-0.133667
-0.0341797	-0.144348
-0.0299072	-0.153198
-0.0271606	-0.158691
0.0140381	-0.158997
0.0234985	-0.152588
0.0308228	-0.136414
0.0115967	-0.106506
-0.00732422	-0.0622559
-0.0320435	-0.00335693
-0.0262451	0.071106
-0.0100708	0.159302
0.0164795	0.260925
0.0234985	0.374146
0.0390625	0.492859
0.0463867	0.609436
0.0448608	0.717773
0.00244141	0.812988
-0.0445557	0.890198
-0.0717163	0.943909
-0.0546265	0.966492
-0.0234985	0.951538
0.00549316	0.898438
0.00518799	0.810547
0.00396729	0.69397
-0.0146484	0.556335
-0.0491333	0.409546
-0.100403	0.262756
-0.078125	0.123901
0.0317383	0.00213623
0.155945	-0.0949097
0.219116	-0.163269
0.204163	-0.203857
0.132751	-0.219727
-0.00274658	-0.216064
-0.181885	-0.19928
-0.333252	-0.176392
-0.349731	-0.152588
-0.198364	-0.132751
0.0576782	-0.120239
0.237732	-0.114746
0.257874	-0.114746
0.147705	-0.119629
0.0463867	-0.127258
-0.0115967	-0.135193
0.000915527	-0.141602
0.065918	-0.144958
0.193787	-0.145569
0.282288	-0.144043
0.242004	-0.140686
0.0146484	-0.137329
-0.306702	-0.133972
-0.616455	-0.130615
-0.760498	-0.127869
-0.69397	-0.126953
-0.415039	-0.127869
-0.0323486	-0.128479
0.374146	-0.128479
0.701294	-0.128479
0.88623	-0.127869
0.86731	-0.126648
0.644836	-0.125122
0.279236	-0.123291
-0.105896	-0.12085
-0.417786	-0.118408
-0.610352	-0.116882
-0.688782	-0.115967
-0.643921	-0.115662
-0.482178	-0.116577
-0.239868	-0.118408
0.0131226	-0.120544
0.223694	-0.121765
0.354919	-0.122986
0.429077	-0.123291
0.427246	-0.122681
0.350342	-0.12146
0.21759	-0.119934
0.0674438	-0.118408
-0.050354	-0.115662
-0.134277	-0.113831
-0.165405	-0.112915
-0.1828	-0.111389
-0.18158	-0.108948
-0.160217	-0.106201
-0.116577	-0.104675
-0.062561	-0.10376
-0.022583	-0.102539
0.0115967	-0.100098
0.0448608	-0.0973511
0.0888062	-0.0939941
0.106201	-0.0894165
0.0906372	-0.085144
0.0524902	-0.0823975
0.0228882	-0.0808716
-0.00640869	-0.0793457
-0.0292969	-0.0778198
-0.0704956	-0.0762939
-0.0921631	-0.0753784
-0.0906372	-0.0756836
-0.0561523	-0.0765991
-0.0180054	-0.0778198
0.03479	-0.0775146
0.0698853	-0.0756836
0.0894165	-0.072937
0.0579834	-0.0704956
0.0268555	-0.0683594
0.00762939	-0.0674438
0.0228882	-0.067749
0.0274658	-0.0671387
0.0149536	-0.0631714
-0.00518799	-0.0582886
-0.0247192	-0.0540161
-0.0265503	-0.0497437
-0.0238037	-0.0454712
-0.0186157	-0.0418091
-0.0140381	-0.0387573
-0.010376	-0.0363159
-0.0131226	-0.0344849
-0.00671387	-0.0332642
0.0106812	-0.0335693
0.0274658	-0.0344849
0.0164795	-0.0360107
0.000305176	-0.0378418
-0.0231934	-0.0396729
-0.0341797	-0.0405884
-0.0247192	-0.0396729
-0.00762939	-0.0372314
0.0125122	-0.0338745
0.0167847	-0.0311279
0.0204468	-0.0283813
0.0283813	-0.0253296
0.0234985	-0.0222778
0.0216675	-0.0192261
-0.000305176	-0.0161743
-0.00762939	-0.0131226
-0.0201416	-0.0115967
-0.039978	-0.0106812
-0.0430298	-0.0106812
-0.0402832	-0.0106812
-0.0326538	-0.0106812
-0.00671387	-0.0109863
0.0256348	-0.0119019
0.055542	-0.0131226
0.0640869	-0.0143433
0.0442505	-0.0140381
0.0146484	-0.0119019
-0.0167847	-0.00732422
-0.0280762	-0.00152588
-0.020752	0.00427246
-0.00976563	0.00854492
-0.0119019	0.0106812
-0.0234985	0.0106812
-0.0299072	0.00823975
-0.0192261	0.00396729
-0.000915527	-0.00244141
0.0183105	-0.0109863
0.0280762	-0.0204468
0.0286865	-0.0296021
0.0161743	-0.0375366
-0.0088501	-0.0436401
-0.0256348	-0.0485229
-0.017395	-0.050354
-0.00244141	-0.0500488
0.0109863	-0.0494385
0.0106812	-0.0500488
0.0134277	-0.0515747
0.0149536	-0.0543213
-0.000305176	-0.0582886
-0.0292969	-0.0640869
-0.0540161	-0.071106
-0.0488281	-0.0796509
-0.00579834	-0.088501
0.0549316	-0.0970459
0.098877	-0.10437
0.10376	-0.108643
0.0759888	-0.110779
0.0320435	-0.110779
-0.00854492	-0.110779
-0.0183105	-0.111389
-0.0125122	-0.112305
0.0112915	-0.111389
0.0088501	-0.109863
-0.0698853	-0.108643
-0.221863	-0.108032
-0.344238	-0.107117
-0.314331	-0.105286
-0.152588	-0.103455
0.0674438	-0.102539
0.224304	-0.101624
0.319824	-0.100098
0.343628	-0.0976563
0.315857	-0.0939941
0.216064	-0.0906372
0.0613403	-0.088501
-0.0918579	-0.0878906
-0.187378	-0.0881958
-0.214844	-0.0888062
-0.187378	-0.088501
-0.115967	-0.0869751
-0.0485229	-0.0854492
-0.00427246	-0.0839233
0.00488281	-0.0830078
-0.00640869	-0.0830078
0.0012207	-0.0836182
0.0204468	-0.0836182
0.0643921	-0.0836182
0.0967407	-0.0830078
0.106506	-0.0830078
0.0686646	-0.0836182
0.0189209	-0.0845337
-0.0469971	-0.085144
-0.0979614	-0.0860596
-0.131226	-0.0860596
-0.125427	-0.0857544
-0.101624	-0.0854492
-0.0482178	-0.0845337
0.0115967	-0.0827026
0.0708008	-0.0805664
0.131836	-0.0793457
0.161133	-0.0784302
0.166626	-0.0772095
0.111694	-0.0756836
0.0250244	-0.0744629
-0.0613403	-0.0747681
-0.11261	-0.0765991
-0.108337	-0.0784302
-0.0997925	-0.0796509
-0.071106	-0.0799561
-0.0344849	-0.0802612
-0.000915527	-0.0805664
0.0289917	-0.0802612
0.03479	-0.078125
0.038147	-0.0744629
0.0317383	-0.0708008
0.020752	-0.0683594
0.0241089	-0.0662231
0.0192261	-0.0643921
0.0125122	-0.0631714
0.00427246	-0.0634766
-0.0128174	-0.0646973
-0.0158691	-0.0668335
-0.0421143	-0.0692749
-0.0466919	-0.0714111
-0.0430298	-0.0732422
-0.0271606	-0.0735474
0.00610352	-0.072937
0.0231934	-0.0720215
0.0314331	-0.071106
0.0296021	-0.0701904
0.0509644	-0.0701904
0.12085	-0.0701904
0.0271606	-0.0698853
-0.260315	-0.0689697
-0.321045	-0.0689697
-0.0424194	-0.0698853
0.253906	-0.071106
0.298462	-0.0720215
0.159302	-0.0723267
0.0521851	-0.0717163
0.0180054	-0.0714111
-0.0341797	-0.0714111
-0.113831	-0.0717163
-0.151978	-0.0726318
-0.131226	-0.0741577
-0.0753784	-0.0762939
-0.0366211	-0.0787354
-0.00457764	-0.0820923
0.0283813	-0.0860596
0.0448608	-0.0912476
0.0512695	-0.0970459
0.039978	-0.101013
0.0323486	-0.103455
0.0289917	-0.10437
0.0125122	-0.104675
-0.000915527	-0.10376
0.00213623	-0.102234
0.116577	-0.101013
0.104675	-0.0982666
-0.230713	-0.0946045
-0.342407	-0.0906372
-0.0875854	-0.0878906
0.250244	-0.0866699
0.313416	-0.0860596
0.112915	-0.0860596
-0.0311279	-0.0866699
-0.045166	-0.0878906
-0.0463867	-0.0888062
-0.109558	-0.0888062
-0.138855	-0.0881958
-0.0860596	-0.0881958
-0.00152588	-0.0888062
0.0418091	-0.0891113
0.0387573	-0.0881958
0.0439453	-0.0857544
0.0769043	-0.0811768
0.0949097	-0.0753784
-0.0088501	-0.0683594
-0.174866	-0.0601196
-0.25238	-0.050354
-0.211182	-0.0396729
-0.057373	-0.0286865
0.151367	-0.0170898
0.416565	-0.00610352
0.404663	0.00335693
0.144958	0.0112915
-0.015564	0.0183105
-0.0265503	0.0244141
-0.0158691	0.0308228
-0.117493	0.0384521
-0.250854	0.0482178
-0.246277	0.06073
-0.164795	0.0750732
-0.0878906	0.0897217
-0.0506592	0.104675
-0.00152588	0.119324
0.0650024	0.132446
0.121155	0.142822
0.148315	0.148315
0.15564	0.149231
0.139465	0.145264
0.115051	0.136108
0.0488281	0.122681
-0.00701904	0.106812
-0.0588989	0.0894165
-0.100403	0.0698853
-0.118713	0.0476074
-0.124817	0.0259399
-0.101013	0.00640869
-0.0665283	-0.0119019
-0.0195313	-0.0299072
0.0213623	-0.0482178
0.0485229	-0.0662231
0.0698853	-0.0830078
0.0628662	-0.0967407
0.0509644	-0.106812
0.043335	-0.114441
0.0299072	-0.120544
0.0100708	-0.125427
-0.0201416	-0.128784
-0.0238037	-0.130615
-0.0170898	-0.13092
-0.0228882	-0.130005
-0.0396729	-0.127869
-0.06073	-0.126648
-0.0411987	-0.128174
-0.0125122	-0.132141
0.00610352	-0.137329
0.0289917	-0.144653
0.0308228	-0.154724
0.0372314	-0.166931
0.0228882	-0.178833
0.0115967	-0.188293
0.0119019	-0.191956
0.0192261	-0.187988
0.0238037	-0.173645
0.0250244	-0.145569
0.0305176	-0.101624
0.0137329	-0.0405884
-0.0244141	0.038147
-0.0521851	0.134277
-0.0598145	0.248108
-0.0454712	0.377197
-0.0201416	0.514526
-0.000915527	0.65033
0.0274658	0.776978
0.0326538	0.887146
0.0274658	0.972595
0.027771	1.02448
0.0137329	1.03516
0.0137329	1.0022
-0.0140381	0.927734
-0.0476074	0.815735
-0.0894165	0.673828
-0.118408	0.512695
-0.105286	0.345764
-0.0738525	0.187073
-0.000610352	0.0476074
0.0842285	-0.0656128
0.166626	-0.148621
0.213013	-0.2005
0.186768	-0.223999
0.0997925	-0.224304
-0.0271606	-0.209351
-0.136719	-0.187073
-0.160828	-0.164185
-0.0820923	-0.144653
0.0360107	-0.130615
0.0793457	-0.123901
-0.0106812	-0.124817
-0.149231	-0.131531
-0.236206	-0.140991
-0.180054	-0.150452
0.00762939	-0.157471
0.25238	-0.161743
0.419617	-0.163879
0.382996	-0.16449
0.179749	-0.162964
-0.0610352	-0.160522
-0.238647	-0.159302
-0.346069	-0.159607
-0.398865	-0.160217
-0.357666	-0.160522
-0.240479	-0.159912
-0.0744629	-0.158691
0.115662	-0.157166
0.288391	-0.15625
0.4245	-0.156555
0.490417	-0.15686
0.441589	-0.15625
0.269775	-0.155029
0.000915527	-0.152893
-0.282288	-0.150757
-0.494995	-0.149841
-0.55542	-0.149536
-0.470276	-0.149841
-0.291138	-0.150452
-0.0680542	-0.151062
0.13855	-0.150757
0.310974	-0.149231
0.40741	-0.147095
0.403748	-0.145569
0.332031	-0.144043
0.221252	-0.142212
0.0842285	-0.140076
-0.057373	-0.137329
-0.171509	-0.133057
-0.232849	-0.128174
-0.239868	-0.124512
-0.209045	-0.122681
-0.153198	-0.12146
-0.0747681	-0.119934
0.0088501	-0.117493
0.0698853	-0.115051
0.0836182	-0.114441
0.0683594	-0.114441
0.0357056	-0.114136
0.0125122	-0.113525
-0.00976563	-0.112915
-0.0115967	-0.113831
-0.00549316	-0.115051
0.000915527	-0.115051
0.00518799	-0.11322
-0.00244141	-0.110168
-0.0106812	-0.106506
-0.0195313	-0.103455
-0.0256348	-0.100403
-0.0186157	-0.0970459
0.0146484	-0.0933838
0.0564575	-0.0900269
0.0714111	-0.0869751
0.0534058	-0.0845337
0.0222778	-0.0827026
-0.00244141	-0.0811768
-0.0158691	-0.0805664
-0.0271606	-0.0805664
-0.0247192	-0.0799561
-0.0161743	-0.078125
-0.0146484	-0.0750732
-0.0183105	-0.0720215
-0.0262451	-0.0689697
-0.0088501	-0.065918
0.015564	-0.0643921
0.0308228	-0.0634766
0.0341797	-0.0628662
0.0418091	-0.062561
0.0466919	-0.062561
0.0231934	-0.0634766
-0.0012207	-0.0637817
-0.0344849	-0.0622559
-0.0592041	-0.0595093
-0.078125	-0.0561523
-0.0817871	-0.0512695
-0.0473022	-0.0445557
-0.010376	-0.0372314
0.0128174	-0.0289917
0.00946045	-0.0210571
0.0201416	-0.0152588
0.0488281	-0.0115967
0.0610352	-0.0088501
0.0509644	-0.00701904
0.017395	-0.00610352
-0.00457764	-0.00701904
-0.0115967	-0.00823975
-0.0167847	-0.0088501
-0.00610352	-0.0088501
-0.00762939	-0.00915527
-0.010376	-0.00915527
-0.0112915	-0.00793457
-0.0164795	-0.00549316
-0.00854492	-0.00244141
0.00946045	0.000305176
0.0234985	0.00244141
0.0296021	0.00335693
0.0137329	0.00335693
0.00946045	0.00213623
0.00152588	0.000610352
-0.00396729	-0.000610352
-0.00701904	-0.00244141
-0.0088501	-0.00579834
-0.000610352	-0.0115967
-0.00457764	-0.0180054
-0.017395	-0.0238037
-0.0271606	-0.0299072
-0.0308228	-0.0378418
-0.0219727	-0.0463867
-0.0213623	-0.0549316
-0.0088501	-0.0628662
0.0109863	-0.0701904
0.0286865	-0.0778198
0.0415039	-0.0860596
0.0292969	-0.0939941
0.0222778	-0.100403
0.00366211	-0.105896
-0.0106812	-0.111694
0.0100708	-0.117798
0.0265503	-0.121765
0.022583	-0.122986
-0.0222778	-0.123291
-0.0662231	-0.123901
-0.0704956	-0.124817
-0.0531006	-0.124817
-0.0262451	-0.123291
-0.0158691	-0.121765
0.00335693	-0.12146
0.0363159	-0.122375
0.0665283	-0.125427
0.0942993	-0.130005
0.0897217	-0.135193
0.0579834	-0.139465
0.0106812	-0.143127
-0.0338745	-0.147095
-0.0531006	-0.149231
-0.0701904	-0.148926
-0.0906372	-0.14801
-0.116882	-0.14679
-0.104065	-0.145569
-0.0283813	-0.144043
0.0524902	-0.141907
0.0985718	-0.138855
0.107117	-0.136719
0.0872803	-0.135193
0.0631714	-0.133667
0.0354004	-0.132751
0.000610352	-0.131531
-0.0411987	-0.13031
-0.0793457	-0.128784
-0.0848389	-0.126648
-0.0491333	-0.124512
0.0253296	-0.122375
0.100098	-0.120239
0.108948	-0.118408
0.0564575	-0.117798
-0.0332642	-0.118103
-0.109863	-0.118103
-0.13916	-0.116882
-0.112	-0.115662
-0.0360107	-0.114746
0.0357056	-0.114136
0.0723267	-0.113831
0.0872803	-0.114136
0.083313	-0.114746
0.0823975	-0.114441
0.0546265	-0.112915
0.00640869	-0.111084
-0.0442505	-0.110168
-0.0878906	-0.110474
-0.098877	-0.109558
-0.0765991	-0.108032
-0.0326538	-0.106506
0.0192261	-0.105286
0.0448608	-0.10376
0.0393677	-0.102234
0.0234985	-0.101318
0.0167847	-0.101929
0.0177002	-0.103455
0.0161743	-0.10437
0.00518799	-0.105591
-0.00854492	-0.107117
-0.0198364	-0.108948
-0.0112915	-0.110474
-0.00335693	-0.111084
-0.00152588	-0.110474
-0.00854492	-0.109863
-0.0244141	-0.108643
-0.0137329	-0.107727
0.00183105	-0.107422
0.0234985	-0.106201
0.027771	-0.104065
0.0244141	-0.101624
0.0335693	-0.0994873
0.0286865	-0.0982666
0.0106812	-0.0976563
-0.0265503	-0.0976563
-0.0332642	-0.0967407
-0.00366211	-0.0949097
0.0177002	-0.0927734
0.00732422	-0.0918579
-0.0323486	-0.0912476
-0.0643921	-0.0900269
-0.0521851	-0.088501
-0.0280762	-0.0878906
0.000915527	-0.0888062
0.00427246	-0.0912476
-0.00396729	-0.093689
-0.010376	-0.0942993
-0.0115967	-0.0946045
-0.000610352	-0.09552
0.00732422	-0.0967407
0.0259399	-0.0985718
0.0543213	-0.0994873
0.071106	-0.0991821
0.0665283	-0.0985718
0.0354004	-0.0979614
0.00946045	-0.0970459
-0.0161743	-0.09552
-0.0357056	-0.0946045
-0.0619507	-0.0942993
-0.072937	-0.0939941
-0.0540161	-0.093689
-0.0146484	-0.0933838
0.0201416	-0.0927734
0.0305176	-0.0915527
0.020752	-0.090332
0.017395	-0.0897217
0.0219727	-0.0897217
0.0296021	-0.0900269
0.0259399	-0.0906372
0.0189209	-0.0918579
0.0115967	-0.0933838
0.00762939	-0.0952148
-0.0134277	-0.0973511
-0.0421143	-0.0994873
-0.0564575	-0.102234
-0.0442505	-0.104065
-0.0177002	-0.10498
0.0177002	-0.105591
0.0421143	-0.10498
0.032959	-0.102539
0.0183105	-0.0982666
0.0167847	-0.0927734
-0.00183105	-0.0866699
-0.0396729	-0.0787354
-0.083313	-0.0686646
-0.0796509	-0.0564575
-0.0253296	-0.0442505
0.0311279	-0.0326538
0.0634766	-0.0228882
0.0686646	-0.0140381
0.0765991	-0.00671387
0.0631714	-0.00183105
0.0286865	0.00183105
-0.0234985	0.00793457
-0.0662231	0.0180054
-0.072937	0.0302124
-0.0704956	0.0436401
-0.0402832	0.0582886
-0.0152588	0.0747681
0.00701904	0.0915527
0.0189209	0.107727
0.0195313	0.122986
0.0341797	0.136108
0.0354004	0.143738
0.0317383	0.144653
0.0164795	0.140381
0.00152588	0.132446
-0.00213623	0.120239
0.00305176	0.10376
0.0119019	0.0863647
-0.0012207	0.0692749
-0.0167847	0.0518799
-0.022583	0.0323486
-0.0274658	0.0119019
-0.0247192	-0.0088501
-0.0128174	-0.0292969
0.00427246	-0.0491333
0.0143433	-0.0674438
0.00915527	-0.0845337
0.00305176	-0.100403
0.000610352	-0.113831
-0.000610352	-0.124817
0.00244141	-0.134277
0.00640869	-0.141907
0.00976563	-0.147705
0.00854492	-0.150452
0.0134277	-0.150757
0.00732422	-0.149536
0.00183105	-0.147705
-0.0177002	-0.146484
-0.0143433	-0.146179
-0.00274658	-0.146484
0.0210571	-0.148315
0.0195313	-0.152283
-0.000305176	-0.159912
-0.0164795	-0.170593
-0.0183105	-0.183105
-0.0152588	-0.196228
-0.0241089	-0.206299
-0.0302124	-0.209656
-0.0314331	-0.203552
-0.0244141	-0.184631
-0.0183105	-0.150146
-0.0140381	-0.0985718
0.00946045	-0.0299072
0.0311279	0.0564575
0.0476074	0.159912
0.0524902	0.279846
0.0588989	0.412598
0.055542	0.550537
0.0466919	0.683289
0.0265503	0.804138
0.00671387	0.906982
-0.0289917	0.983582
-0.0756836	1.02448
-0.118103	1.02356
-0.126648	0.979309
-0.0933838	0.893555
-0.0518799	0.77179
-0.00579834	0.623779
0.027771	0.461121
0.0576782	0.296326
0.0634766	0.140686
0.0814819	0.00488281
0.135498	-0.10376
0.209351	-0.18158
0.220337	-0.227966
0.125427	-0.246582
-0.0323486	-0.243225
-0.181274	-0.225525
-0.285645	-0.200806
-0.315857	-0.175781
-0.227661	-0.155334
-0.0375366	-0.141602
0.133667	-0.134277
0.168762	-0.133057
0.0817871	-0.136719
-0.00579834	-0.144653
-0.0262451	-0.153198
0.039978	-0.160522
0.150452	-0.166626
0.250549	-0.170593
0.249329	-0.171814
0.106506	-0.171509
-0.115967	-0.171204
-0.305176	-0.170593
-0.414734	-0.169067
-0.423279	-0.167542
-0.328064	-0.166321
-0.150146	-0.164185
0.0500488	-0.161133
0.222778	-0.158691
0.359802	-0.157471
0.463562	-0.157776
0.503235	-0.158386
0.422974	-0.158081
0.217285	-0.156555
-0.0588989	-0.154419
-0.323792	-0.152283
-0.505981	-0.150757
-0.559692	-0.148926
-0.46814	-0.14679
-0.268555	-0.144348
-0.0518799	-0.141602
0.125732	-0.139465
0.252075	-0.136719
0.34729	-0.132446
0.403137	-0.128174
0.371399	-0.125427
0.259705	-0.124207
0.0949097	-0.123291
-0.0631714	-0.12207
-0.179138	-0.12207
-0.244446	-0.123291
-0.252686	-0.124817
-0.214539	-0.126648
-0.141907	-0.128784
-0.0582886	-0.131226
0.0146484	-0.131836
0.0784302	-0.130615
0.123901	-0.129089
0.137329	-0.127563
0.106812	-0.125732
0.0476074	-0.124512
-0.0219727	-0.123901
-0.0875854	-0.12207
-0.133057	-0.119324
-0.134583	-0.116882
-0.0942993	-0.114746
-0.0332642	-0.112
0.0314331	-0.107422
0.09552	-0.101929
0.137024	-0.0958252
0.138855	-0.0909424
0.0976563	-0.0866699
0.0289917	-0.083313
-0.0314331	-0.0799561
-0.0686646	-0.0772095
-0.0860596	-0.0759888
-0.0787354	-0.0769043
-0.0695801	-0.078125
-0.0430298	-0.0793457
-0.00579834	-0.0796509
0.045166	-0.0787354
0.0747681	-0.0765991
0.0830078	-0.0732422
0.0671387	-0.0689697
0.043335	-0.0653076
0.0204468	-0.062561
0	-0.0595093
-0.0323486	-0.0561523
-0.0335693	-0.0531006
-0.0402832	-0.0500488
-0.045166	-0.0482178
-0.0640869	-0.0482178
-0.0680542	-0.0488281
-0.0527954	-0.0494385
-0.00335693	-0.050354
0.0384521	-0.0509644
0.0793457	-0.0488281
0.0872803	-0.0439453
0.0860596	-0.0384521
0.0524902	-0.0326538
0.00671387	-0.0259399
-0.0466919	-0.0183105
-0.0756836	-0.0109863
-0.0878906	-0.00518799
-0.083313	-0.000915527
-0.0784302	0.0012207
-0.0643921	0.0012207
-0.0286865	-0.000915527
0.0201416	-0.00457764
0.0738525	-0.00976563
0.09552	-0.0152588
0.0912476	-0.020752
0.0665283	-0.0244141
0.0421143	-0.0250244
0.0262451	-0.022583
0.0204468	-0.0186157
-0.000915527	-0.0146484
-0.0216675	-0.0106812
-0.0436401	-0.00671387
-0.0592041	-0.00335693
-0.0552368	-0.0012207
-0.0424194	-0.00152588
-0.0241089	-0.00396729
0.0137329	-0.00762939
0.0598145	-0.0119019
0.0759888	-0.017395
0.0393677	-0.0241089
-0.0164795	-0.032959
-0.0558472	-0.043335
-0.0549316	-0.0543213
-0.0326538	-0.0650024
-0.0112915	-0.0747681
0.00335693	-0.0823975
0.00579834	-0.0897217
0.022583	-0.0973511
0.0296021	-0.10437
0.0302124	-0.109863
0.0137329	-0.112915
-0.00244141	-0.11261
-0.0170898	-0.111084
-0.0216675	-0.109253
-0.017395	-0.107727
-0.00915527	-0.107117
0.00488281	-0.106506
0.0115967	-0.107117
0.00488281	-0.108032
-0.00671387	-0.109558
-0.00915527	-0.112
0.00213623	-0.115051
0.0109863	-0.118103
0.00915527	-0.120544
-0.0134277	-0.12207
-0.020752	-0.124207
-0.0198364	-0.126953
-0.00488281	-0.130615
0.0137329	-0.133362
0.0323486	-0.134277
0.0271606	-0.134583
-0.0192261	-0.134888
-0.0494385	-0.134583
-0.0326538	-0.132751
0.0125122	-0.13031
0.0238037	-0.128174
0.0119019	-0.127563
0.00335693	-0.126953
0.0177002	-0.125732
0.0308228	-0.123291
0.017395	-0.121765
-0.0164795	-0.122986
-0.0500488	-0.126038
-0.0521851	-0.127563
-0.0177002	-0.127869
0.0405884	-0.127563
0.0848389	-0.126343
0.0860596	-0.124207
0.0488281	-0.121765
-0.00946045	-0.119324
-0.0524902	-0.117493
-0.0878906	-0.116882
-0.103455	-0.117188
-0.0970459	-0.117188
-0.0350952	-0.116577
0.0457764	-0.116272
0.109253	-0.117188
0.125427	-0.118408
0.112	-0.118713
0.0509644	-0.118713
-0.020752	-0.118103
-0.088501	-0.116577
-0.121155	-0.114441
-0.11261	-0.112
-0.0820923	-0.109863
-0.0186157	-0.108032
0.0390625	-0.105896
0.0997925	-0.104065
0.107422	-0.102234
0.0808716	-0.100403
0.0149536	-0.0982666
-0.0186157	-0.0964355
-0.0531006	-0.09552
-0.0537109	-0.0961304
-0.0646973	-0.0976563
-0.043335	-0.0997925
-0.0128174	-0.101624
0.0180054	-0.102539
0.0305176	-0.103149
0.0299072	-0.103455
0.0350952	-0.10437
0.0421143	-0.10437
0.0393677	-0.101929
0.0161743	-0.0970459
-0.022583	-0.0906372
-0.0585938	-0.0842285
-0.0869751	-0.0790405
-0.0775146	-0.0753784
-0.0427246	-0.0735474
0.010376	-0.0723267
0.0360107	-0.0717163
0.065918	-0.0723267
0.0634766	-0.0744629
0.0494385	-0.0778198
0.0180054	-0.0817871
0.0241089	-0.0854492
0.0320435	-0.088501
0.0241089	-0.0909424
-0.010376	-0.0921631
-0.0408936	-0.0927734
-0.0482178	-0.0930786
-0.0534058	-0.0927734
-0.0549316	-0.0915527
-0.0689697	-0.090332
-0.0436401	-0.0894165
-0.00274658	-0.0881958
0.0506592	-0.0866699
0.0692749	-0.0848389
0.0585938	-0.0839233
0.0354004	-0.083313
0.0152588	-0.0836182
0.00854492	-0.0836182
-0.00427246	-0.0827026
-0.0131226	-0.0811768
-0.0189209	-0.0799561
-0.0134277	-0.0799561
-0.00244141	-0.0802612
-0.00305176	-0.0802612
-0.00274658	-0.0796509
-0.0128174	-0.0778198
-0.0164795	-0.0762939
-0.0268555	-0.0753784
-0.020752	-0.0741577
0	-0.0735474
0.0222778	-0.072937
0.0299072	-0.0726318
0.0238037	-0.072937
0.0115967	-0.072937
0.00610352	-0.072937
-0.00518799	-0.0726318
-0.00793457	-0.0723267
-0.00671387	-0.072937
0.00579834	-0.0744629
0.0115967	-0.0762939
0.00732422	-0.0772095
-0.00518799	-0.0772095
-0.00427246	-0.0769043
-0.00305176	-0.0765991
-0.0012207	-0.0750732
-0.0119019	-0.0717163
-0.045166	-0.0656128
-0.0500488	-0.0579834
-0.0354004	-0.0488281
0.00396729	-0.038147
0.0299072	-0.0271606
0.062561	-0.0167847
0.0646973	-0.00823975
0.0442505	-0.00183105
-0.0012207	0.00244141
-0.0430298	0.00671387
-0.0454712	0.0119019
-0.038147	0.0167847
-0.0109863	0.022583
-0.0100708	0.0299072
0.000610352	0.039978
-0.0152588	0.0531006
-0.0170898	0.0689697
-0.0112915	0.0845337
0.0222778	0.098877
0.0482178	0.11261
0.0561523	0.126038
0.0415039	0.137024
0.0195313	0.143738
-0.00152588	0.145874
-0.0317383	0.144653
-0.0354004	0.140381
-0.0253296	0.132751
-0.0112915	0.12207
-0.0109863	0.108643
-0.0195313	0.0927734
-0.00183105	0.0750732
0.0177002	0.0558472
0.0363159	0.0360107
0.0366211	0.0158691
0.0341797	-0.00457764
0.0134277	-0.0238037
-0.0177002	-0.0421143
-0.057373	-0.0598145
-0.0732422	-0.0750732
-0.0460815	-0.0869751
-0.00183105	-0.0952148
0.0265503	-0.101624
0.0375366	-0.106812
0.0405884	-0.111084
0.0143433	-0.113831
-0.012207	-0.113831
-0.0283813	-0.112
-0.0222778	-0.110168
-0.0128174	-0.109253
0.00335693	-0.108948
0.0192261	-0.110779
0.032959	-0.115662
0.0177002	-0.123596
-0.022583	-0.133667
-0.0534058	-0.144653
-0.0363159	-0.154419
0.00457764	-0.161438
0.0350952	-0.162964
0.0326538	-0.15564
0.0253296	-0.136719
0.0314331	-0.10376
0.0357056	-0.057373
0.0296021	0.00213623
0.0140381	0.0762939
-0.0119019	0.166931
-0.0299072	0.272522
-0.0411987	0.388794
-0.0402832	0.509644
-0.0369263	0.630798
-0.0231934	0.745239
-0.0167847	0.845642
0.00183105	0.925903
0.0210571	0.979614
0.0360107	0.999756
0.0228882	0.982056
0.00183105	0.925293
-0.00518799	0.831604
-0.0112915	0.707092
-0.03479	0.562439
-0.0704956	0.410461
-0.0830078	0.26123
-0.0518799	0.12207
0.0228882	0.0012207
0.108032	-0.0952148
0.175781	-0.162964
0.189209	-0.200195
0.126953	-0.210266
-0.00701904	-0.201111
-0.16571	-0.179443
-0.291138	-0.153809
-0.245972	-0.1297
0.103455	-0.111084
0.421753	-0.098877
0.239258	-0.0924683
-0.28595	-0.090332
-0.556335	-0.0924683
-0.324402	-0.0979614
0.085144	-0.106506
0.327454	-0.115967
0.398865	-0.123596
0.405884	-0.128174
0.325012	-0.131226
0.144653	-0.133057
-0.0723267	-0.134583
-0.265503	-0.136719
-0.443115	-0.139465
-0.559387	-0.141602
-0.557861	-0.142822
-0.401001	-0.143433
-0.123291	-0.143738
0.213928	-0.141907
0.519409	-0.138855
0.711365	-0.135193
0.723267	-0.131226
0.534058	-0.127563
0.219727	-0.123901
-0.132446	-0.120239
-0.436707	-0.117188
-0.613098	-0.114746
-0.627747	-0.11322
-0.493469	-0.112915
-0.254822	-0.112
0.00793457	-0.110474
0.21637	-0.109253
0.327148	-0.108337
0.3479	-0.106812
0.300903	-0.104675
0.213928	-0.102539
0.103149	-0.101013
0.00732422	-0.100098
-0.0448608	-0.101013
-0.0613403	-0.102539
-0.0534058	-0.103149
-0.0491333	-0.103149
-0.045166	-0.103455
-0.0354004	-0.103149
-0.0305176	-0.101929
-0.0411987	-0.098877
-0.0631714	-0.0949097
-0.0668335	-0.0909424
-0.0567627	-0.0878906
-0.0308228	-0.0860596
-0.0216675	-0.0836182
-0.00274658	-0.0805664
0.00457764	-0.0787354
0.0109863	-0.0775146
0.0012207	-0.0765991
0.00518799	-0.0765991
0.0201416	-0.0778198
0.0473022	-0.0784302
0.0604248	-0.0762939
0.0531006	-0.0723267
0.0296021	-0.0680542
-0.00823975	-0.0643921
-0.0299072	-0.0613403
-0.0415039	-0.0582886
-0.0253296	-0.0561523
-0.0134277	-0.0543213
-0.012207	-0.0527954
-0.0222778	-0.0512695
-0.0210571	-0.0497437
0.010376	-0.0482178
0.0411987	-0.0469971
0.0546265	-0.0457764
0.0323486	-0.0442505
0.0253296	-0.0424194
0.0216675	-0.0408936
0.0106812	-0.0390625
-0.0143433	-0.0363159
-0.0350952	-0.0341797
-0.0515747	-0.0326538
-0.0552368	-0.0308228
-0.0396729	-0.0286865
-0.0131226	-0.0253296
0.00793457	-0.0216675
0.0170898	-0.0183105
0.0350952	-0.0149536
0.0323486	-0.0119019
0.0308228	-0.00823975
0.00976563	-0.00488281
0.00152588	-0.00305176
0.00762939	-0.00244141
0.0222778	-0.00274658
0.0320435	-0.00335693
0.00610352	-0.00396729
-0.0210571	-0.00518799
-0.0408936	-0.00671387
-0.0430298	-0.00793457
-0.0424194	-0.0088501
-0.0268555	-0.0088501
0.0012207	-0.00854492
0.0231934	-0.00762939
0.0335693	-0.00640869
0.0268555	-0.00427246
0.0198364	-0.000915527
0.00793457	0.00335693
0.00183105	0.0088501
-0.00244141	0.0143433
-0.00335693	0.0180054
-0.00823975	0.0192261
-0.0180054	0.0186157
-0.032959	0.0167847
-0.0463867	0.0143433
-0.0466919	0.0106812
-0.0415039	0.00610352
-0.0241089	0.0012207
-0.00244141	-0.00335693
0.0280762	-0.00854492
0.0558472	-0.0140381
0.0708008	-0.0195313
0.0634766	-0.0247192
0.0457764	-0.0299072
0.0164795	-0.0372314
-0.0198364	-0.0460815
-0.0427246	-0.0531006
-0.0482178	-0.0582886
-0.0372314	-0.0637817
-0.0222778	-0.0695801
-0.00152588	-0.0741577
0.0216675	-0.0765991
0.020752	-0.0762939
0.00701904	-0.0759888
-0.00579834	-0.0756836
-0.00244141	-0.0750732
0.00488281	-0.0750732
0.00457764	-0.0759888
0.00183105	-0.0772095
0.0128174	-0.078125
0.0292969	-0.0790405
0.050354	-0.0811768
0.0653076	-0.0842285
0.0579834	-0.0863647
0.0390625	-0.0866699
0.00823975	-0.0866699
-0.0210571	-0.0869751
-0.0564575	-0.0878906
-0.0811768	-0.0888062
-0.11322	-0.0888062
-0.18219	-0.0881958
-0.252686	-0.0872803
-0.223389	-0.0857544
-0.0396729	-0.0842285
0.160217	-0.0830078
0.281677	-0.0823975
0.252075	-0.0817871
0.16449	-0.0823975
0.0946045	-0.083313
0.0686646	-0.0848389
0.0201416	-0.0857544
-0.0466919	-0.0860596
-0.116882	-0.0869751
-0.137024	-0.0878906
-0.105286	-0.088501
-0.0299072	-0.0878906
0.0512695	-0.0869751
0.0839233	-0.0866699
0.0769043	-0.0866699
0.0253296	-0.0860596
-0.0158691	-0.0842285
-0.050354	-0.0814819
-0.0668335	-0.0790405
-0.0524902	-0.0772095
-0.0360107	-0.0759888
-0.0219727	-0.0735474
-0.0244141	-0.0704956
-0.0195313	-0.0668335
-0.020752	-0.0637817
-0.0180054	-0.0619507
-0.00305176	-0.0610352
0.0332642	-0.0613403
0.0689697	-0.062561
0.088501	-0.0643921
0.0918579	-0.065918
0.0720215	-0.0671387
0.0424194	-0.0686646
-0.00274658	-0.0704956
-0.0274658	-0.0723267
-0.0543213	-0.0741577
-0.0692749	-0.0750732
-0.0827026	-0.0741577
-0.0759888	-0.0717163
-0.0540161	-0.0695801
-0.0283813	-0.0668335
-0.00518799	-0.0637817
0.00976563	-0.0604248
0.0393677	-0.0576782
0.0738525	-0.0558472
0.0875854	-0.0558472
0.0778198	-0.0561523
0.0509644	-0.0570679
0.0112915	-0.0585938
-0.0296021	-0.0610352
-0.055542	-0.0628662
-0.0720215	-0.0634766
-0.0704956	-0.0634766
-0.0582886	-0.0634766
-0.0357056	-0.0637817
0.00213623	-0.0640869
0.0335693	-0.0628662
0.0527954	-0.0604248
0.0662231	-0.0576782
0.0604248	-0.055542
0.0448608	-0.0540161
0.00549316	-0.0543213
-0.0296021	-0.0552368
-0.0375366	-0.0558472
-0.0234985	-0.0558472
-0.022583	-0.0564575
-0.0469971	-0.0576782
-0.055542	-0.0588989
-0.027771	-0.0604248
0.0283813	-0.062561
0.0448608	-0.0646973
0.0393677	-0.0665283
0.0219727	-0.0671387
0.0204468	-0.0665283
0.0186157	-0.0646973
0.00854492	-0.062561
-0.0140381	-0.0613403
-0.045166	-0.0616455
-0.0650024	-0.0619507
-0.078125	-0.0613403
-0.0457764	-0.0598145
-0.00671387	-0.0598145
0.0552368	-0.0619507
0.100708	-0.0650024
0.124207	-0.0671387
0.0930786	-0.0674438
0.0463867	-0.0662231
-0.010376	-0.0637817
-0.0582886	-0.0616455
-0.0811768	-0.0598145
-0.0997925	-0.0588989
-0.0750732	-0.0576782
-0.0491333	-0.055542
-0.0106812	-0.0524902
0.00427246	-0.050354
0.0106812	-0.0494385
0.0134277	-0.0494385
0.0161743	-0.0509644
0.0308228	-0.0534058
0.0244141	-0.0561523
0.0167847	-0.0582886
0.00488281	-0.0595093
0.0213623	-0.0601196
0.0262451	-0.0592041
0.0366211	-0.0561523
0.0228882	-0.0506592
0.0244141	-0.0442505
0.00732422	-0.0372314
-0.00518799	-0.0289917
-0.0164795	-0.0189209
-0.0384521	-0.00793457
-0.0378418	0.00213623
-0.0524902	0.0100708
-0.017395	0.0170898
-0.00793457	0.0234985
0.010376	0.0292969
0.00823975	0.0366211
-0.00274658	0.0466919
0.00518799	0.0579834
0.000915527	0.0708008
0.0164795	0.0857544
0.00518799	0.101318
0.0100708	0.116272
0	0.129089
0.00640869	0.13916
0.0131226	0.144958
0.0149536	0.14679
0.00488281	0.145264
-0.0323486	0.140991
-0.043335	0.134888
-0.0436401	0.126648
0.000610352	0.116272
0.00549316	0.10437
0.00915527	0.0918579
-0.00335693	0.0793457
-0.00366211	0.0665283
0.00335693	0.0521851
0.00854492	0.0357056
0.0363159	0.0167847
0.0497437	-0.00305176
0.0671387	-0.022583
0.0402832	-0.0411987
0.0109863	-0.0598145
-0.0186157	-0.0772095
-0.0326538	-0.0912476
-0.0570679	-0.101013
-0.0653076	-0.107117
-0.0665283	-0.110779
-0.0558472	-0.112
-0.0256348	-0.110474
-0.00701904	-0.108032
0.0518799	-0.10498
0.06073	-0.103149
0.0643921	-0.103149
0.0424194	-0.105286
0.0268555	-0.109863
0.0180054	-0.117188
-0.00640869	-0.127563
-0.0100708	-0.140991
-0.0149536	-0.153809
-0.00335693	-0.162354
-0.0131226	-0.164185
-0.0115967	-0.158081
-0.0262451	-0.141296
-0.0268555	-0.110474
-0.03479	-0.0643921
-0.0476074	-0.00335693
-0.0183105	0.0720215
0.00671387	0.161743
0.062561	0.264282
0.0708008	0.377197
0.0497437	0.4953
0.0186157	0.613708
-0.0219727	0.725098
-0.0305176	0.823364
-0.0366211	0.903015
-0.0314331	0.957947
-0.0109863	0.981445
-0.00488281	0.967712
0.00701904	0.915833
0.00305176	0.828857
-0.00610352	0.711365
-0.0289917	0.570984
-0.0595093	0.419617
-0.0527954	0.26886
-0.0289917	0.127563
0.0256348	0.00518799
0.0875854	-0.0924683
0.144043	-0.162048
0.1474	-0.201721
0.090332	-0.214539
-0.000915527	-0.206604
-0.13092	-0.186462
-0.206299	-0.161438
-0.176697	-0.137634
-0.0360107	-0.117798
0.140381	-0.10437
0.180969	-0.0982666
0.0653076	-0.098877
-0.0830078	-0.105286
-0.161743	-0.113831
-0.109863	-0.121765
0.0521851	-0.126953
0.21637	-0.1297
0.33844	-0.13092
0.350647	-0.13031
0.230408	-0.128174
0.0128174	-0.125427
-0.293579	-0.123596
-0.601807	-0.122375
-0.768738	-0.120239
-0.689087	-0.118103
-0.380859	-0.116882
0.032959	-0.116882
0.415649	-0.116882
0.697021	-0.115662
0.844421	-0.11261
0.762024	-0.109253
0.495911	-0.106201
0.16571	-0.103455
-0.1828	-0.100708
-0.454407	-0.098877
-0.620728	-0.0985718
-0.663757	-0.0985718
-0.534973	-0.0979614
-0.324707	-0.0973511
-0.0891113	-0.0958252
0.14801	-0.0933838
0.304565	-0.0900269
0.370178	-0.0866699
0.362549	-0.0839233
0.270081	-0.0802612
0.164795	-0.0765991
0.0695801	-0.0735474
-0.00793457	-0.0714111
-0.0369263	-0.0708008
-0.0512695	-0.0714111
-0.0793457	-0.0735474
-0.085144	-0.0762939
-0.0686646	-0.0787354
-0.0579834	-0.0805664
-0.0601196	-0.0805664
-0.0720215	-0.0796509
-0.0735474	-0.0787354
-0.0512695	-0.0769043
-0.0177002	-0.0735474
0.00244141	-0.0692749
0.012207	-0.0650024
0.0283813	-0.0616455
0.0219727	-0.0595093
0.0302124	-0.0582886
0.0460815	-0.057373
0.0402832	-0.0567627
0.0350952	-0.0570679
0.00732422	-0.0579834
-0.0222778	-0.0598145
-0.0317383	-0.062561
-0.0442505	-0.0637817
-0.0378418	-0.0634766
-0.0216675	-0.0628662
0.000305176	-0.0622559
0.0250244	-0.0613403
0.032959	-0.0598145
0.0250244	-0.057373
0.000915527	-0.0537109
-0.00488281	-0.0491333
0.00366211	-0.0454712
0.00274658	-0.0427246
-0.000610352	-0.0405884
-0.010376	-0.0390625
-0.0012207	-0.038147
0.0286865	-0.0378418
0.0457764	-0.0366211
0.0341797	-0.0344849
0.00579834	-0.0320435
-0.0143433	-0.0292969
-0.0149536	-0.0265503
-0.012207	-0.0250244
-0.0131226	-0.0231934
-0.0186157	-0.0201416
-0.0131226	-0.0164795
-0.00701904	-0.0131226
-0.010376	-0.0106812
-0.00793457	-0.0088501
-0.00427246	-0.00793457
0.00701904	-0.00762939
0.000610352	-0.00701904
-0.0216675	-0.00610352
-0.0198364	-0.00610352
-0.00671387	-0.00671387
0.00946045	-0.00671387
0.00976563	-0.00549316
-0.00640869	-0.00427246
-0.012207	-0.00427246
-0.000305176	-0.00518799
0.0161743	-0.00549316
0.0289917	-0.00366211
0.0228882	-0.0012207
0.0134277	0.00305176
0.0149536	0.00854492
0.0115967	0.0137329
0.00183105	0.0183105
-0.015564	0.0216675
-0.0350952	0.0244141
-0.0363159	0.0262451
-0.0247192	0.0271606
-0.0140381	0.0265503
-0.00488281	0.0241089
0.00762939	0.0192261
0.0244141	0.0128174
0.0408936	0.00518799
0.0302124	-0.00213623
-0.000610352	-0.0088501
-0.0262451	-0.0149536
-0.0326538	-0.0213623
-0.00793457	-0.0286865
0.0244141	-0.0363159
0.039978	-0.0439453
0.0415039	-0.050354
0.0320435	-0.0558472
0.0115967	-0.0604248
