L I	L III	L II(Calc.)
-0.0814819	-0.0100708	-0.0915527
-0.0808716	-0.0109863	-0.0918579
-0.0802612	-0.0125122	-0.0927734
-0.0802612	-0.0137329	-0.0939941
-0.0817871	-0.0143433	-0.0961304
-0.0839233	-0.0146484	-0.0985718
-0.0854492	-0.0161743	-0.101624
-0.0848389	-0.0195313	-0.10437
-0.0820923	-0.0238037	-0.105896
-0.0799561	-0.0268555	-0.106812
-0.0799561	-0.0274658	-0.107422
-0.0805664	-0.0268555	-0.107422
-0.0802612	-0.0262451	-0.106506
-0.0790405	-0.0262451	-0.105286
-0.078125	-0.0259399	-0.104065
-0.078125	-0.0250244	-0.103149
-0.0793457	-0.0228882	-0.102234
-0.0796509	-0.0213623	-0.101013
-0.0799561	-0.0198364	-0.0997925
-0.0817871	-0.0170898	-0.098877
-0.0839233	-0.0146484	-0.0985718
-0.0839233	-0.0134277	-0.0973511
-0.0823975	-0.0134277	-0.0958252
-0.0793457	-0.0146484	-0.0939941
-0.0756836	-0.0164795	-0.0921631
-0.0723267	-0.0189209	-0.0912476
-0.0698853	-0.0210571	-0.0909424
-0.0695801	-0.0222778	-0.0918579
-0.0698853	-0.022583	-0.0924683
-0.0698853	-0.022583	-0.0924683
-0.0692749	-0.0219727	-0.0912476
-0.0686646	-0.020752	-0.0894165
-0.0692749	-0.0186157	-0.0878906
-0.0701904	-0.0158691	-0.0860596
-0.0698853	-0.0137329	-0.0836182
-0.0692749	-0.012207	-0.0814819
-0.0683594	-0.0109863	-0.0793457
-0.0671387	-0.010376	-0.0775146
-0.0656128	-0.010376	-0.0759888
-0.0637817	-0.0109863	-0.0747681
-0.0631714	-0.0106812	-0.0738525
-0.0634766	-0.00915527	-0.0726318
-0.0640869	-0.00762939	-0.0717163
-0.0646973	-0.00610352	-0.0708008
-0.0650024	-0.00488281	-0.0698853
-0.0646973	-0.00396729	-0.0686646
-0.0643921	-0.00335693	-0.067749
-0.0631714	-0.00335693	-0.0665283
-0.0613403	-0.00427246	-0.0656128
-0.0598145	-0.00518799	-0.0650024
-0.0588989	-0.00518799	-0.0640869
-0.0576782	-0.00640869	-0.0640869
-0.055542	-0.00793457	-0.0634766
-0.0537109	-0.00946045	-0.0631714
-0.0521851	-0.010376	-0.062561
-0.0509644	-0.0100708	-0.0610352
-0.0509644	-0.00915527	-0.0601196
-0.0512695	-0.00793457	-0.0592041
-0.0518799	-0.00610352	-0.0579834
-0.0521851	-0.00457764	-0.0567627
-0.0518799	-0.00335693	-0.0552368
-0.0518799	-0.00274658	-0.0546265
-0.0524902	-0.00335693	-0.0558472
-0.0537109	-0.00457764	-0.0582886
-0.0546265	-0.00518799	-0.0598145
-0.0564575	-0.00488281	-0.0613403
-0.0601196	-0.00335693	-0.0634766
-0.0653076	-0.000610352	-0.065918
-0.0701904	0.00244141	-0.067749
-0.0732422	0.00366211	-0.0695801
-0.072937	0.00213623	-0.0708008
-0.0720215	0.000305176	-0.0717163
-0.0714111	0.000305176	-0.071106
-0.0708008	0.000915527	-0.0698853
-0.0701904	0.00152588	-0.0686646
-0.0695801	0.00213623	-0.0674438
-0.0671387	0.000610352	-0.0665283
-0.0628662	-0.00305176	-0.065918
-0.0588989	-0.00671387	-0.0656128
-0.0549316	-0.0100708	-0.0650024
-0.0509644	-0.0128174	-0.0637817
-0.0485229	-0.0140381	-0.062561
-0.0476074	-0.0149536	-0.062561
-0.0466919	-0.0161743	-0.0628662
-0.0448608	-0.0177002	-0.062561
-0.043335	-0.0186157	-0.0619507
-0.0418091	-0.0189209	-0.06073
-0.0402832	-0.0189209	-0.0592041
-0.039978	-0.0189209	-0.0588989
-0.0415039	-0.0180054	-0.0595093
-0.0445557	-0.0161743	-0.06073
-0.0485229	-0.0131226	-0.0616455
-0.0531006	-0.00946045	-0.062561
-0.0576782	-0.00610352	-0.0637817
-0.0604248	-0.00396729	-0.0643921
-0.0613403	-0.00305176	-0.0643921
-0.0619507	-0.00274658	-0.0646973
-0.062561	-0.00244141	-0.0650024
-0.0637817	-0.00183105	-0.0656128
-0.0650024	-0.0012207	-0.0662231
-0.0650024	-0.0012207	-0.0662231
-0.0646973	-0.00183105	-0.0665283
-0.0646973	-0.00244141	-0.0671387
-0.0650024	-0.00305176	-0.0680542
-0.0650024	-0.00396729	-0.0689697
-0.0653076	-0.00488281	-0.0701904
-0.0665283	-0.00518799	-0.0717163
-0.067749	-0.00549316	-0.0732422
-0.0671387	-0.00671387	-0.0738525
-0.0653076	-0.00823975	-0.0735474
-0.0637817	-0.00823975	-0.0720215
-0.0631714	-0.00762939	-0.0708008
-0.062561	-0.00701904	-0.0695801
-0.0610352	-0.00793457	-0.0689697
-0.0582886	-0.00946045	-0.067749
-0.0552368	-0.0109863	-0.0662231
-0.0537109	-0.010376	-0.0640869
-0.0534058	-0.00701904	-0.0604248
-0.0537109	-0.00152588	-0.0552368
-0.0540161	0.00640869	-0.0476074
-0.0537109	0.0152588	-0.0384521
-0.050354	0.0231934	-0.0271606
-0.0454712	0.0305176	-0.0149536
-0.043335	0.0378418	-0.00549316
-0.0445557	0.0457764	0.0012207
-0.0463867	0.0527954	0.00640869
-0.0473022	0.0592041	0.0119019
-0.0485229	0.0653076	0.0167847
-0.0497437	0.0698853	0.0201416
-0.0506592	0.0741577	0.0234985
-0.0518799	0.0790405	0.0271606
-0.0540161	0.0866699	0.0326538
-0.0570679	0.0982666	0.0411987
-0.0598145	0.112915	0.0531006
-0.062561	0.129395	0.0668335
-0.0653076	0.146484	0.0811768
-0.0668335	0.162048	0.0952148
-0.067749	0.175781	0.108032
-0.0683594	0.185852	0.117493
-0.0674438	0.19043	0.122986
-0.0643921	0.188599	0.124207
-0.0601196	0.181274	0.121155
-0.0552368	0.169678	0.114441
-0.0506592	0.155029	0.10437
-0.0457764	0.138245	0.0924683
-0.0415039	0.120239	0.0787354
-0.0387573	0.102234	0.0634766
-0.0375366	0.0848389	0.0473022
-0.0378418	0.0683594	0.0305176
-0.0393677	0.0531006	0.0137329
-0.0427246	0.0384521	-0.00427246
-0.0473022	0.0238037	-0.0234985
-0.0515747	0.00854492	-0.0430298
-0.0543213	-0.00701904	-0.0613403
-0.0561523	-0.0231934	-0.0793457
-0.057373	-0.0384521	-0.0958252
-0.0579834	-0.0521851	-0.110168
-0.0595093	-0.0637817	-0.123291
-0.0619507	-0.072937	-0.134888
-0.0637817	-0.0799561	-0.143738
-0.065918	-0.0836182	-0.149536
-0.0674438	-0.0845337	-0.151978
-0.0692749	-0.0830078	-0.152283
-0.071106	-0.0796509	-0.150757
-0.0723267	-0.0756836	-0.14801
-0.0726318	-0.0726318	-0.145264
-0.0720215	-0.0714111	-0.143433
-0.0704956	-0.0738525	-0.144348
-0.0671387	-0.0805664	-0.147705
-0.0613403	-0.0918579	-0.153198
-0.0552368	-0.105896	-0.161133
-0.0497437	-0.12207	-0.171814
-0.0442505	-0.13916	-0.183411
-0.0357056	-0.15625	-0.191956
-0.0250244	-0.169983	-0.195007
-0.0137329	-0.176086	-0.189819
-0.00213623	-0.170593	-0.172729
0.0106812	-0.151672	-0.140991
0.0238037	-0.117798	-0.0939941
0.0360107	-0.0671387	-0.0311279
0.0463867	0.0012207	0.0476074
0.0546265	0.0875854	0.142212
0.0601196	0.192261	0.25238
0.0634766	0.310669	0.374146
0.0671387	0.43396	0.501099
0.0738525	0.552673	0.626526
0.0817871	0.6604	0.742188
0.0900269	0.751038	0.841064
0.098877	0.816345	0.915222
0.109558	0.849304	0.958862
0.118713	0.846558	0.965271
0.121765	0.809326	0.931091
0.116577	0.740967	0.857544
0.10376	0.644226	0.747986
0.0842285	0.526428	0.610657
0.0598145	0.397644	0.457458
0.0317383	0.268555	0.300293
0.00244141	0.148315	0.150757
-0.0265503	0.043335	0.0167847
-0.0531006	-0.0408936	-0.0939941
-0.0738525	-0.102234	-0.176086
-0.0869751	-0.141602	-0.228577
-0.0906372	-0.162354	-0.252991
-0.0866699	-0.168152	-0.254822
-0.0775146	-0.163574	-0.241089
-0.0665283	-0.153198	-0.219727
-0.0558472	-0.140076	-0.195923
-0.0466919	-0.128174	-0.174866
-0.0387573	-0.120544	-0.159302
-0.0323486	-0.117188	-0.149536
-0.0286865	-0.117188	-0.145874
-0.0286865	-0.119019	-0.147705
-0.0299072	-0.123596	-0.153503
-0.0314331	-0.129395	-0.160828
-0.032959	-0.135803	-0.168762
-0.03479	-0.141296	-0.176086
-0.0369263	-0.144958	-0.181885
-0.0393677	-0.14679	-0.186157
-0.0421143	-0.147095	-0.189209
-0.0448608	-0.146179	-0.19104
-0.0466919	-0.144653	-0.191345
-0.0473022	-0.142517	-0.189819
-0.0476074	-0.13916	-0.186768
-0.0476074	-0.135498	-0.183105
-0.0460815	-0.132446	-0.178528
-0.0427246	-0.130615	-0.17334
-0.0384521	-0.130615	-0.169067
-0.0341797	-0.131531	-0.16571
-0.0305176	-0.131836	-0.162354
-0.0283813	-0.131836	-0.160217
-0.0259399	-0.132751	-0.158691
-0.0228882	-0.134583	-0.157471
-0.0198364	-0.136719	-0.156555
-0.017395	-0.137939	-0.155334
-0.0167847	-0.137939	-0.154724
-0.0177002	-0.136414	-0.154114
-0.0195313	-0.133057	-0.152588
-0.0222778	-0.128479	-0.150757
-0.0250244	-0.123596	-0.148621
-0.0280762	-0.118713	-0.14679
-0.0314331	-0.114136	-0.145569
-0.03479	-0.109253	-0.144043
-0.0378418	-0.10437	-0.142212
-0.0402832	-0.100403	-0.140686
-0.0402832	-0.0991821	-0.139465
-0.038147	-0.101318	-0.139465
-0.0338745	-0.105591	-0.139465
-0.0289917	-0.109863	-0.138855
-0.0250244	-0.113525	-0.13855
-0.022583	-0.115356	-0.137939
-0.020752	-0.116882	-0.137634
-0.0170898	-0.120239	-0.137329
-0.0125122	-0.124512	-0.137024
-0.0088501	-0.127869	-0.136719
-0.00671387	-0.128784	-0.135498
-0.00610352	-0.127563	-0.133667
-0.00671387	-0.125427	-0.132141
-0.00732422	-0.123291	-0.130615
-0.00549316	-0.122375	-0.127869
-0.00152588	-0.123291	-0.124817
0.00366211	-0.124207	-0.120544
0.00793457	-0.124512	-0.116577
0.010376	-0.122986	-0.11261
0.00946045	-0.119934	-0.110474
0.00549316	-0.115967	-0.110474
0.00183105	-0.11261	-0.110779
-0.000305176	-0.109863	-0.110168
-0.00183105	-0.107727	-0.109558
-0.00366211	-0.105896	-0.109558
-0.00579834	-0.104065	-0.109863
-0.00732422	-0.102844	-0.110168
-0.00762939	-0.102234	-0.109863
-0.00610352	-0.102539	-0.108643
-0.00244141	-0.10376	-0.106201
0.00183105	-0.105591	-0.10376
0.00518799	-0.106812	-0.101624
0.00823975	-0.108032	-0.0997925
0.0109863	-0.108032	-0.0970459
0.0131226	-0.108032	-0.0949097
0.0152588	-0.108032	-0.0927734
0.017395	-0.108032	-0.0906372
0.0189209	-0.108643	-0.0897217
0.0192261	-0.108337	-0.0891113
0.0192261	-0.106812	-0.0875854
0.0210571	-0.106201	-0.085144
0.0244141	-0.107727	-0.083313
0.027771	-0.109253	-0.0814819
0.0302124	-0.110474	-0.0802612
0.0311279	-0.110474	-0.0793457
0.0308228	-0.109253	-0.0784302
0.0308228	-0.108643	-0.0778198
0.0326538	-0.109558	-0.0769043
0.0369263	-0.112	-0.0750732
0.0427246	-0.115356	-0.0726318
0.0482178	-0.118103	-0.0698853
0.0537109	-0.121155	-0.0674438
0.0598145	-0.124207	-0.0643921
0.0662231	-0.127563	-0.0613403
0.071106	-0.13092	-0.0598145
0.0744629	-0.133667	-0.0592041
0.0765991	-0.135498	-0.0588989
0.0765991	-0.135193	-0.0585938
0.0756836	-0.134277	-0.0585938
0.0738525	-0.132141	-0.0582886
0.0701904	-0.128174	-0.0579834
0.0662231	-0.123596	-0.057373
0.0628662	-0.120239	-0.057373
0.0595093	-0.116882	-0.057373
0.0570679	-0.113831	-0.0567627
0.0561523	-0.112	-0.0558472
0.0564575	-0.111084	-0.0546265
0.0567627	-0.111084	-0.0543213
0.0564575	-0.111084	-0.0546265
0.0543213	-0.109558	-0.0552368
0.0515747	-0.107117	-0.055542
0.0491333	-0.10437	-0.0552368
0.0463867	-0.101013	-0.0546265
0.0430298	-0.0973511	-0.0543213
0.0390625	-0.0942993	-0.0552368
0.0357056	-0.0921631	-0.0564575
0.0326538	-0.090332	-0.0576782
0.0299072	-0.0891113	-0.0592041
0.0262451	-0.0881958	-0.0619507
0.0213623	-0.0875854	-0.0662231
0.0164795	-0.0878906	-0.0714111
0.0128174	-0.0888062	-0.0759888
0.0100708	-0.0894165	-0.0793457
0.00671387	-0.0894165	-0.0827026
0.0012207	-0.0878906	-0.0866699
-0.00640869	-0.0854492	-0.0918579
-0.0152588	-0.0820923	-0.0973511
-0.0238037	-0.0790405	-0.102844
-0.0308228	-0.0769043	-0.107727
-0.0360107	-0.0759888	-0.112
-0.039978	-0.0759888	-0.115967
-0.0436401	-0.0759888	-0.119629
-0.0469971	-0.0756836	-0.122681
-0.0494385	-0.0765991	-0.126038
-0.0509644	-0.078125	-0.129089
-0.0518799	-0.0805664	-0.132446
-0.0534058	-0.0836182	-0.137024
-0.055542	-0.0857544	-0.141296
-0.057373	-0.0875854	-0.144958
-0.0592041	-0.088501	-0.147705
-0.0619507	-0.0881958	-0.150146
-0.0653076	-0.0869751	-0.152283
-0.0689697	-0.0848389	-0.153809
-0.0720215	-0.0823975	-0.154419
-0.0741577	-0.0793457	-0.153503
-0.0750732	-0.0765991	-0.151672
-0.0747681	-0.0741577	-0.148926
-0.0744629	-0.0720215	-0.146484
-0.0732422	-0.071106	-0.144348
-0.0714111	-0.0720215	-0.143433
-0.0701904	-0.0732422	-0.143433
-0.0698853	-0.0747681	-0.144653
-0.0689697	-0.0769043	-0.145874
-0.0671387	-0.0799561	-0.147095
-0.0646973	-0.083313	-0.14801
-0.0613403	-0.0872803	-0.148621
-0.0579834	-0.0912476	-0.149231
-0.0534058	-0.0942993	-0.147705
-0.0479126	-0.0964355	-0.144348
-0.0427246	-0.0976563	-0.140381
-0.0387573	-0.0985718	-0.137329
-0.0357056	-0.0994873	-0.135193
-0.0323486	-0.100708	-0.133057
-0.0292969	-0.101624	-0.13092
-0.0274658	-0.100708	-0.128174
-0.0274658	-0.0985718	-0.126038
-0.0280762	-0.0952148	-0.123291
-0.0302124	-0.0912476	-0.12146
-0.0335693	-0.0875854	-0.121155
-0.0375366	-0.0845337	-0.12207
-0.039978	-0.0817871	-0.121765
-0.0405884	-0.0796509	-0.120239
-0.0408936	-0.0784302	-0.119324
-0.0424194	-0.0784302	-0.12085
-0.0442505	-0.0796509	-0.123901
-0.0448608	-0.0808716	-0.125732
-0.0448608	-0.0823975	-0.127258
-0.0445557	-0.083313	-0.127869
-0.0460815	-0.0830078	-0.129089
-0.0491333	-0.0814819	-0.130615
-0.0527954	-0.0802612	-0.133057
-0.0558472	-0.0787354	-0.134583
-0.0582886	-0.0769043	-0.135193
-0.0610352	-0.0738525	-0.134888
-0.0628662	-0.0701904	-0.133057
-0.0643921	-0.0671387	-0.131531
-0.0646973	-0.0656128	-0.13031
-0.0628662	-0.0650024	-0.127869
-0.06073	-0.0650024	-0.125732
-0.0585938	-0.0650024	-0.123596
-0.0552368	-0.0665283	-0.121765
-0.0506592	-0.0695801	-0.120239
-0.0457764	-0.0738525	-0.119629
-0.0405884	-0.0784302	-0.119019
-0.0363159	-0.0830078	-0.119324
-0.0335693	-0.0866699	-0.120239
-0.0317383	-0.0897217	-0.12146
-0.0296021	-0.0921631	-0.121765
-0.0274658	-0.0942993	-0.121765
-0.0265503	-0.0952148	-0.121765
-0.0268555	-0.0946045	-0.12146
-0.0283813	-0.0927734	-0.121155
-0.0308228	-0.090332	-0.121155
-0.0335693	-0.0881958	-0.121765
-0.0357056	-0.0863647	-0.12207
-0.0378418	-0.0848389	-0.122681
-0.0405884	-0.0820923	-0.122681
-0.0442505	-0.078125	-0.122375
-0.0476074	-0.0747681	-0.122375
-0.0494385	-0.072937	-0.122375
-0.0497437	-0.0732422	-0.122986
-0.0491333	-0.0747681	-0.123901
-0.0488281	-0.0753784	-0.124207
-0.0494385	-0.0747681	-0.124207
-0.0491333	-0.0744629	-0.123596
-0.0460815	-0.0765991	-0.122681
-0.0402832	-0.0802612	-0.120544
-0.0341797	-0.0848389	-0.119019
-0.0308228	-0.0881958	-0.119019
-0.0296021	-0.0900269	-0.119629
-0.0302124	-0.0906372	-0.12085
-0.0326538	-0.0897217	-0.122375
-0.0354004	-0.0881958	-0.123596
-0.038147	-0.0863647	-0.124512
-0.0415039	-0.0836182	-0.125122
-0.0454712	-0.0805664	-0.126038
-0.050354	-0.0775146	-0.127869
-0.0549316	-0.0747681	-0.1297
-0.0588989	-0.072937	-0.131836
-0.06073	-0.0732422	-0.133972
-0.0588989	-0.0753784	-0.134277
-0.0543213	-0.0793457	-0.133667
-0.0491333	-0.0845337	-0.133667
-0.0442505	-0.0888062	-0.133057
-0.0411987	-0.0915527	-0.132751
-0.0393677	-0.0933838	-0.132751
-0.0378418	-0.09552	-0.133362
-0.0363159	-0.0976563	-0.133972
-0.0344849	-0.0994873	-0.133972
-0.0326538	-0.100098	-0.132751
-0.0317383	-0.098877	-0.130615
-0.0317383	-0.0964355	-0.128174
-0.032959	-0.0939941	-0.126953
-0.0350952	-0.0921631	-0.127258
-0.0369263	-0.0912476	-0.128174
-0.038147	-0.0909424	-0.129089
-0.0393677	-0.0900269	-0.129395
-0.0415039	-0.0875854	-0.129089
-0.0448608	-0.0820923	-0.126953
-0.0482178	-0.0738525	-0.12207
-0.050354	-0.065918	-0.116272
-0.0500488	-0.0592041	-0.109253
-0.0485229	-0.0518799	-0.100403
-0.0466919	-0.0430298	-0.0897217
-0.0448608	-0.0335693	-0.0784302
-0.0424194	-0.0247192	-0.0671387
-0.0393677	-0.0183105	-0.0576782
-0.0369263	-0.0128174	-0.0497437
-0.0363159	-0.00701904	-0.043335
-0.0350952	-0.00244141	-0.0375366
-0.0335693	0.00152588	-0.0320435
-0.032959	0.00701904	-0.0259399
-0.0335693	0.0149536	-0.0186157
-0.0341797	0.0253296	-0.0088501
-0.0350952	0.0378418	0.00274658
-0.0363159	0.0521851	0.0158691
-0.0387573	0.0671387	0.0283813
-0.0418091	0.0814819	0.0396729
-0.043335	0.0939941	0.0506592
-0.043335	0.103149	0.0598145
-0.0427246	0.108948	0.0662231
-0.0424194	0.110474	0.0680542
-0.0427246	0.108032	0.0653076
-0.0430298	0.102234	0.0592041
-0.0427246	0.093689	0.0509644
-0.0415039	0.0820923	0.0405884
-0.039978	0.0686646	0.0286865
-0.0396729	0.0546265	0.0149536
-0.0424194	0.0421143	-0.000305176
-0.0473022	0.0302124	-0.0170898
-0.0521851	0.0167847	-0.0354004
-0.0564575	0.00183105	-0.0546265
-0.0598145	-0.0149536	-0.0747681
-0.0628662	-0.0323486	-0.0952148
-0.0646973	-0.050354	-0.115051
-0.0643921	-0.0683594	-0.132751
-0.0619507	-0.0863647	-0.148315
-0.0585938	-0.102844	-0.161438
-0.0546265	-0.116577	-0.171204
-0.0512695	-0.127563	-0.178833
-0.0482178	-0.135498	-0.183716
-0.0454712	-0.141296	-0.186768
-0.0418091	-0.145264	-0.187073
-0.0393677	-0.147095	-0.186462
-0.039978	-0.146179	-0.186157
-0.0421143	-0.144348	-0.186462
-0.0442505	-0.144043	-0.188293
-0.0445557	-0.146179	-0.190735
-0.0436401	-0.150452	-0.194092
-0.0424194	-0.15686	-0.19928
-0.0396729	-0.166321	-0.205994
-0.0350952	-0.179138	-0.214233
-0.0286865	-0.195007	-0.223694
-0.0219727	-0.212402	-0.234375
-0.0152588	-0.229187	-0.244446
-0.00823975	-0.241699	-0.249939
-0.000915527	-0.247803	-0.248718
0.00701904	-0.246582	-0.239563
0.0164795	-0.235596	-0.219116
0.0256348	-0.211182	-0.185547
0.0320435	-0.170593	-0.13855
0.0363159	-0.11322	-0.0769043
0.0396729	-0.0402832	-0.000610352
0.0421143	0.0494385	0.0915527
0.0442505	0.155029	0.19928
0.0463867	0.272217	0.318604
0.0515747	0.391541	0.443115
0.0610352	0.503845	0.56488
0.0744629	0.603638	0.678101
0.0897217	0.68634	0.776062
0.105286	0.744629	0.849915
0.119934	0.772095	0.892029
0.130615	0.765076	0.895691
0.133057	0.725098	0.858154
0.125732	0.654602	0.780334
0.109253	0.557556	0.666809
0.0848389	0.440979	0.525818
0.0546265	0.314026	0.368652
0.0216675	0.187073	0.20874
-0.0115967	0.0686646	0.0570679
-0.0421143	-0.0344849	-0.0765991
-0.0671387	-0.118103	-0.185242
-0.0839233	-0.179749	-0.263672
-0.0912476	-0.219727	-0.310974
-0.0897217	-0.240173	-0.329895
-0.0808716	-0.244751	-0.325623
-0.0668335	-0.238953	-0.305786
-0.0524902	-0.226135	-0.278625
-0.0418091	-0.209351	-0.25116
-0.03479	-0.192566	-0.227356
-0.0292969	-0.179749	-0.209045
-0.0247192	-0.17334	-0.198059
-0.0228882	-0.171509	-0.194397
-0.0250244	-0.171814	-0.196838
-0.0283813	-0.17395	-0.202332
-0.0302124	-0.177917	-0.20813
-0.0311279	-0.182495	-0.213623
-0.0320435	-0.185547	-0.21759
-0.0320435	-0.187378	-0.219421
-0.0320435	-0.188904	-0.220947
-0.0335693	-0.189209	-0.222778
-0.0363159	-0.188904	-0.22522
-0.039978	-0.187378	-0.227356
-0.043335	-0.184937	-0.228271
-0.0463867	-0.1828	-0.229187
-0.0479126	-0.181885	-0.229797
-0.0476074	-0.1828	-0.230408
-0.0448608	-0.185242	-0.230103
-0.0411987	-0.187378	-0.228577
-0.038147	-0.188293	-0.22644
-0.0350952	-0.187683	-0.222778
-0.0317383	-0.186157	-0.217896
-0.0292969	-0.183411	-0.212708
-0.0274658	-0.180664	-0.20813
-0.0244141	-0.179749	-0.204163
-0.0198364	-0.180664	-0.2005
-0.0152588	-0.1828	-0.198059
-0.0115967	-0.185852	-0.197449
-0.00915527	-0.188293	-0.197449
-0.00762939	-0.190125	-0.197754
-0.00518799	-0.192261	-0.197449
-0.0012207	-0.195618	-0.196838
0.00274658	-0.198669	-0.195923
0.00518799	-0.200195	-0.195007
0.00579834	-0.19928	-0.193481
0.00488281	-0.197144	-0.192261
0.00274658	-0.193176	-0.19043
-0.000305176	-0.188293	-0.188599
-0.00396729	-0.183411	-0.187378
-0.00793457	-0.179138	-0.187073
-0.012207	-0.175476	-0.187683
-0.0158691	-0.173035	-0.188904
-0.0183105	-0.171814	-0.190125
-0.0192261	-0.170898	-0.190125
-0.0192261	-0.169983	-0.189209
-0.0189209	-0.169067	-0.187988
-0.0180054	-0.168762	-0.186768
-0.0161743	-0.169067	-0.185242
-0.0140381	-0.169067	-0.183105
-0.0119019	-0.168762	-0.180664
-0.0109863	-0.167847	-0.178833
-0.0106812	-0.166931	-0.177612
-0.010376	-0.167236	-0.177612
-0.0088501	-0.168152	-0.177002
-0.00762939	-0.168762	-0.176392
-0.00701904	-0.168762	-0.175781
-0.00701904	-0.167542	-0.174561
-0.00701904	-0.165405	-0.172424
-0.00579834	-0.164185	-0.169983
-0.00335693	-0.163879	-0.167236
0.000610352	-0.164185	-0.163574
0.00488281	-0.164185	-0.159302
0.00854492	-0.163879	-0.155334
0.0128174	-0.164795	-0.151978
0.0177002	-0.166931	-0.149231
0.0222778	-0.170288	-0.14801
0.0265503	-0.174561	-0.14801
0.0302124	-0.177917	-0.147705
0.0338745	-0.180969	-0.147095
0.0375366	-0.183716	-0.146179
0.0411987	-0.185547	-0.144348
0.0448608	-0.186157	-0.141296
0.0463867	-0.185242	-0.138855
0.0466919	-0.183105	-0.136414
0.0466919	-0.180664	-0.133972
0.0469971	-0.177917	-0.13092
0.0476074	-0.175171	-0.127563
0.0482178	-0.173035	-0.124817
0.0491333	-0.171509	-0.122375
0.0500488	-0.170593	-0.120544
0.0494385	-0.169678	-0.120239
0.0463867	-0.168152	-0.121765
0.0418091	-0.16571	-0.123901
0.0378418	-0.162964	-0.125122
0.0354004	-0.161743	-0.126343
0.0350952	-0.162048	-0.126953
0.0357056	-0.162354	-0.126648
0.0375366	-0.163574	-0.126038
0.0411987	-0.16571	-0.124512
0.0469971	-0.168152	-0.121155
0.0546265	-0.172119	-0.117493
0.0637817	-0.177307	-0.113525
0.072937	-0.183411	-0.110474
0.0817871	-0.189209	-0.107422
0.0894165	-0.193481	-0.104065
0.0933838	-0.195923	-0.102539
0.0933838	-0.195618	-0.102234
0.0906372	-0.193481	-0.102844
0.0863647	-0.19043	-0.104065
0.0817871	-0.186768	-0.10498
0.078125	-0.183105	-0.10498
0.0759888	-0.179443	-0.103455
0.0738525	-0.175171	-0.101318
0.0720215	-0.171204	-0.0991821
0.0714111	-0.169067	-0.0976563
0.0723267	-0.168457	-0.0961304
0.072937	-0.168152	-0.0952148
0.072937	-0.168457	-0.09552
0.071106	-0.168762	-0.0976563
0.0674438	-0.168152	-0.100708
0.06073	-0.1651	-0.10437
0.0518799	-0.159912	-0.108032
0.0427246	-0.154114	-0.111389
0.0344849	-0.148926	-0.114441
0.0265503	-0.143738	-0.117188
0.0186157	-0.137634	-0.119019
0.0119019	-0.131226	-0.119324
0.00640869	-0.125122	-0.118713
0.00183105	-0.119934	-0.118103
-0.00305176	-0.115967	-0.119019
-0.00823975	-0.11322	-0.12146
-0.0140381	-0.110779	-0.124817
-0.0204468	-0.108948	-0.129395
-0.0283813	-0.107117	-0.135498
-0.0372314	-0.105591	-0.142822
-0.045166	-0.10437	-0.149536
-0.0506592	-0.104065	-0.154724
-0.0534058	-0.105286	-0.158691
-0.0552368	-0.107422	-0.162659
-0.0561523	-0.109863	-0.166016
-0.0552368	-0.112915	-0.168152
-0.0524902	-0.116577	-0.169067
-0.0469971	-0.12085	-0.167847
-0.0405884	-0.125122	-0.16571
-0.03479	-0.129089	-0.163879
-0.0314331	-0.131836	-0.163269
-0.0305176	-0.133362	-0.163879
-0.0314331	-0.133667	-0.1651
-0.0335693	-0.133057	-0.166626
-0.0357056	-0.132141	-0.167847
-0.0384521	-0.131226	-0.169678
-0.0415039	-0.130005	-0.171509
-0.0445557	-0.128479	-0.173035
-0.0463867	-0.127563	-0.17395
-0.0463867	-0.126953	-0.17334
-0.045166	-0.126038	-0.171204
-0.043335	-0.124817	-0.168152
-0.0405884	-0.123291	-0.163879
-0.0375366	-0.122681	-0.160217
-0.0344849	-0.122375	-0.15686
-0.0314331	-0.122681	-0.154114
-0.0292969	-0.122681	-0.151978
-0.0286865	-0.122681	-0.151367
-0.0292969	-0.12207	-0.151367
-0.0308228	-0.122375	-0.153198
-0.0317383	-0.123596	-0.155334
-0.0320435	-0.125122	-0.157166
-0.0326538	-0.126648	-0.159302
-0.0338745	-0.127258	-0.161133
-0.0350952	-0.126953	-0.162048
-0.0363159	-0.125732	-0.162048
-0.0372314	-0.123901	-0.161133
-0.0378418	-0.12085	-0.158691
-0.0390625	-0.115967	-0.155029
-0.0411987	-0.110168	-0.151367
-0.0436401	-0.10498	-0.148621
-0.045166	-0.100708	-0.145874
-0.0448608	-0.0985718	-0.143433
-0.043335	-0.0985718	-0.141907
-0.0418091	-0.0997925	-0.141602
-0.039978	-0.101318	-0.141296
-0.0372314	-0.104065	-0.141296
-0.0338745	-0.107727	-0.141602
-0.0302124	-0.111694	-0.141907
-0.027771	-0.114746	-0.142517
-0.0262451	-0.116272	-0.142517
-0.0256348	-0.116882	-0.142517
-0.0259399	-0.115662	-0.141602
-0.0271606	-0.112915	-0.140076
-0.0286865	-0.109253	-0.137939
-0.0302124	-0.10498	-0.135193
-0.0311279	-0.101624	-0.132751
-0.0308228	-0.0994873	-0.13031
-0.0305176	-0.0976563	-0.128174
-0.0283813	-0.0979614	-0.126343
-0.0247192	-0.100098	-0.124817
-0.020752	-0.102844	-0.123596
-0.0186157	-0.10437	-0.122986
-0.0177002	-0.104065	-0.121765
-0.017395	-0.103149	-0.120544
-0.0170898	-0.101929	-0.119019
-0.017395	-0.100403	-0.117798
-0.0198364	-0.0979614	-0.117798
-0.0231934	-0.0952148	-0.118408
-0.0256348	-0.0933838	-0.119019
-0.0274658	-0.0918579	-0.119324
-0.0292969	-0.0912476	-0.120544
-0.0311279	-0.0921631	-0.123291
-0.0332642	-0.0930786	-0.126343
-0.0363159	-0.0939941	-0.13031
-0.0387573	-0.0946045	-0.133362
-0.0402832	-0.09552	-0.135803
-0.0402832	-0.0964355	-0.136719
-0.0393677	-0.0967407	-0.136108
-0.0387573	-0.0958252	-0.134583
-0.0384521	-0.0942993	-0.132751
-0.0378418	-0.0927734	-0.130615
-0.0369263	-0.0918579	-0.128784
-0.0350952	-0.0924683	-0.127563
-0.0320435	-0.0946045	-0.126648
-0.0283813	-0.0970459	-0.125427
-0.0250244	-0.100098	-0.125122
-0.0228882	-0.102539	-0.125427
-0.0228882	-0.104065	-0.126953
-0.0238037	-0.10437	-0.128174
-0.0256348	-0.103455	-0.129089
-0.027771	-0.101013	-0.128784
-0.0283813	-0.0991821	-0.127563
-0.0262451	-0.0985718	-0.124817
-0.022583	-0.0982666	-0.12085
-0.0195313	-0.0982666	-0.117798
-0.0177002	-0.0979614	-0.115662
-0.0180054	-0.0973511	-0.115356
-0.0192261	-0.0973511	-0.116577
-0.0186157	-0.0994873	-0.118103
-0.0170898	-0.102539	-0.119629
-0.0152588	-0.10498	-0.120239
-0.0152588	-0.105896	-0.121155
-0.017395	-0.105286	-0.122681
-0.0204468	-0.104065	-0.124512
-0.0231934	-0.102539	-0.125732
-0.0259399	-0.0997925	-0.125732
-0.0271606	-0.0970459	-0.124207
-0.0262451	-0.0939941	-0.120239
-0.0250244	-0.0906372	-0.115662
-0.0244141	-0.0863647	-0.110779
-0.0241089	-0.0811768	-0.105286
-0.0253296	-0.0744629	-0.0997925
-0.0280762	-0.0656128	-0.093689
-0.0314331	-0.0552368	-0.0866699
-0.0338745	-0.0457764	-0.0796509
-0.0338745	-0.0387573	-0.0726318
-0.0323486	-0.0335693	-0.065918
-0.0308228	-0.0289917	-0.0598145
-0.0292969	-0.0231934	-0.0524902
-0.0265503	-0.0180054	-0.0445557
-0.0231934	-0.0134277	-0.0366211
-0.0198364	-0.00823975	-0.0280762
-0.0161743	-0.0012207	-0.017395
-0.0125122	0.00762939	-0.00488281
-0.00854492	0.0177002	0.00915527
-0.00579834	0.0299072	0.0241089
-0.00518799	0.0445557	0.0393677
-0.00732422	0.0610352	0.0537109
-0.0100708	0.078125	0.0680542
-0.0119019	0.0924683	0.0805664
-0.0125122	0.102539	0.0900269
-0.0115967	0.107117	0.09552
-0.0106812	0.107117	0.0964355
-0.00976563	0.102844	0.0930786
-0.0088501	0.0946045	0.0857544
-0.00823975	0.0827026	0.0744629
-0.0088501	0.0683594	0.0595093
-0.00976563	0.0521851	0.0424194
-0.0115967	0.0354004	0.0238037
-0.0140381	0.0180054	0.00396729
-0.0180054	0.0012207	-0.0167847
-0.0234985	-0.0149536	-0.0384521
-0.0289917	-0.0305176	-0.0595093
-0.0335693	-0.0454712	-0.0790405
-0.0369263	-0.0604248	-0.0973511
-0.0387573	-0.0753784	-0.114136
-0.0384521	-0.0906372	-0.129089
-0.0369263	-0.105286	-0.142212
-0.0354004	-0.117188	-0.152588
-0.0350952	-0.124512	-0.159607
-0.0344849	-0.1297	-0.164185
-0.0317383	-0.135193	-0.166931
-0.027771	-0.139465	-0.167236
-0.0253296	-0.140076	-0.165405
-0.0234985	-0.13855	-0.162048
-0.0216675	-0.137634	-0.159302
-0.0204468	-0.137939	-0.158386
-0.0183105	-0.140076	-0.158386
-0.0134277	-0.145264	-0.158691
-0.00854492	-0.153809	-0.162354
-0.00549316	-0.164795	-0.170288
-0.00244141	-0.177917	-0.180359
0.00244141	-0.193176	-0.190735
0.00762939	-0.207825	-0.200195
0.0119019	-0.219421	-0.20752
0.015564	-0.224915	-0.209351
0.0186157	-0.222473	-0.203857
0.0219727	-0.210571	-0.188599
0.0253296	-0.187988	-0.162659
0.0296021	-0.153198	-0.123596
0.0350952	-0.10437	-0.0692749
0.039978	-0.0411987	-0.0012207
0.0436401	0.0357056	0.0793457
0.0457764	0.125122	0.170898
0.0466919	0.226135	0.272827
0.0479126	0.332642	0.380554
0.0524902	0.435181	0.487671
0.06073	0.527039	0.587769
0.0717163	0.603943	0.675659
0.083313	0.663757	0.74707
0.0939941	0.702515	0.796509
0.103455	0.714722	0.818176
0.110779	0.695801	0.80658
0.11322	0.647888	0.761108
0.107727	0.576477	0.684204
0.0949097	0.487061	0.58197
0.0769043	0.384216	0.461121
0.0546265	0.274963	0.32959
0.0289917	0.167236	0.196228
0.00213623	0.0665283	0.0686646
-0.022583	-0.0222778	-0.0448608
-0.0427246	-0.0952148	-0.137939
-0.0558472	-0.151062	-0.206909
-0.06073	-0.189514	-0.250244
-0.0579834	-0.213013	-0.270996
-0.0491333	-0.223694	-0.272827
-0.0375366	-0.224609	-0.262146
-0.0256348	-0.219727	-0.245361
-0.0143433	-0.211487	-0.22583
-0.00488281	-0.202942	-0.207825
0.00244141	-0.195007	-0.192566
0.00701904	-0.189209	-0.18219
0.00793457	-0.185242	-0.177307
0.00640869	-0.183105	-0.176697
0.00274658	-0.18219	-0.179443
-0.00152588	-0.1828	-0.184326
-0.00457764	-0.184021	-0.188599
-0.00610352	-0.185852	-0.191956
-0.00610352	-0.187073	-0.193176
-0.00457764	-0.187683	-0.192261
-0.00335693	-0.187378	-0.190735
-0.00274658	-0.185547	-0.188293
-0.00305176	-0.183411	-0.186462
-0.00396729	-0.181274	-0.185242
-0.00457764	-0.179749	-0.184326
-0.00305176	-0.180359	-0.183411
-0.000305176	-0.18219	-0.182495
0.000915527	-0.1828	-0.181885
0.000610352	-0.182495	-0.181885
-0.000305176	-0.1828	-0.183105
-0.0012207	-0.183716	-0.184937
-0.000610352	-0.184631	-0.185242
0.00152588	-0.185547	-0.184021
0.00335693	-0.184326	-0.180969
0.00488281	-0.183105	-0.178223
0.00732422	-0.1828	-0.175476
0.010376	-0.1828	-0.172424
0.0134277	-0.181885	-0.168457
0.0161743	-0.180359	-0.164185
0.0177002	-0.178528	-0.160828
0.0195313	-0.177612	-0.158081
0.0219727	-0.177612	-0.15564
0.0238037	-0.177612	-0.153809
0.0244141	-0.176697	-0.152283
0.0241089	-0.175476	-0.151367
0.0238037	-0.17395	-0.150146
0.022583	-0.172424	-0.149841
0.0204468	-0.170898	-0.150452
0.0183105	-0.169373	-0.151062
0.0170898	-0.168457	-0.151367
0.0161743	-0.167847	-0.151672
0.015564	-0.167236	-0.151672
0.0158691	-0.167236	-0.151367
0.0170898	-0.167236	-0.150146
0.0186157	-0.167542	-0.148926
0.0195313	-0.167542	-0.14801
0.0210571	-0.166931	-0.145874
0.022583	-0.1651	-0.142517
0.0234985	-0.162659	-0.13916
0.0244141	-0.160522	-0.136108
0.0247192	-0.158081	-0.133362
0.0244141	-0.15564	-0.131226
0.0234985	-0.153503	-0.130005
0.022583	-0.152588	-0.130005
0.022583	-0.153198	-0.130615
0.0231934	-0.154724	-0.131531
0.0244141	-0.157166	-0.132751
0.0256348	-0.158997	-0.133362
0.0265503	-0.160217	-0.133667
0.0274658	-0.160217	-0.132751
0.0283813	-0.158997	-0.130615
0.0289917	-0.156555	-0.127563
0.0299072	-0.153503	-0.123596
0.0314331	-0.151367	-0.119934
0.0326538	-0.149231	-0.116577
0.0338745	-0.147705	-0.113831
0.0363159	-0.1474	-0.111084
0.0390625	-0.147705	-0.108643
0.0424194	-0.148621	-0.106201
0.0476074	-0.151367	-0.10376
0.0524902	-0.154114	-0.101624
0.0558472	-0.157166	-0.101318
0.0582886	-0.160217	-0.101929
0.0598145	-0.162048	-0.102234
0.0613403	-0.163269	-0.101929
0.0631714	-0.163574	-0.100403
0.0643921	-0.164185	-0.0997925
0.065918	-0.164795	-0.098877
0.0671387	-0.165405	-0.0982666
0.0692749	-0.166321	-0.0970459
0.0726318	-0.168152	-0.09552
0.0762939	-0.169983	-0.093689
0.0805664	-0.171509	-0.0909424
0.0845337	-0.172424	-0.0878906
0.0875854	-0.172729	-0.085144
0.0891113	-0.171814	-0.0827026
0.0891113	-0.170288	-0.0811768
0.0891113	-0.169067	-0.0799561
0.0891113	-0.168762	-0.0796509
0.0900269	-0.168762	-0.0787354
0.0915527	-0.168457	-0.0769043
0.0930786	-0.168152	-0.0750732
0.0942993	-0.168152	-0.0738525
0.0946045	-0.168152	-0.0735474
0.0958252	-0.168457	-0.0726318
0.0982666	-0.169983	-0.0717163
0.100708	-0.171814	-0.071106
0.101318	-0.172729	-0.0714111
0.0994873	-0.172424	-0.072937
0.0964355	-0.171204	-0.0747681
0.0927734	-0.169373	-0.0765991
0.0900269	-0.167847	-0.0778198
0.0878906	-0.166321	-0.0784302
0.0863647	-0.1651	-0.0787354
0.0872803	-0.164185	-0.0769043
0.0888062	-0.162048	-0.0732422
0.0894165	-0.157471	-0.0680542
0.0875854	-0.150452	-0.0628662
0.0842285	-0.142517	-0.0582886
0.0793457	-0.133667	-0.0543213
0.072937	-0.124512	-0.0515747
0.0650024	-0.115662	-0.0506592
0.0552368	-0.106812	-0.0515747
0.0436401	-0.0982666	-0.0546265
0.0317383	-0.090332	-0.0585938
0.020752	-0.0836182	-0.0628662
0.0109863	-0.0790405	-0.0680542
0.00396729	-0.0778198	-0.0738525
-0.000305176	-0.0793457	-0.0796509
-0.00335693	-0.0820923	-0.0854492
-0.00579834	-0.0845337	-0.090332
-0.00701904	-0.0863647	-0.0933838
-0.00701904	-0.0894165	-0.0964355
-0.00671387	-0.0930786	-0.0997925
-0.00701904	-0.0964355	-0.103455
-0.00915527	-0.0985718	-0.107727
-0.0137329	-0.0991821	-0.112915
-0.0180054	-0.0994873	-0.117493
-0.0216675	-0.0994873	-0.121155
-0.0247192	-0.0991821	-0.123901
-0.0265503	-0.0991821	-0.125732
-0.0274658	-0.0991821	-0.126648
-0.0274658	-0.098877	-0.126343
-0.0271606	-0.0979614	-0.125122
-0.0262451	-0.0970459	-0.123291
-0.0234985	-0.0973511	-0.12085
-0.0198364	-0.098877	-0.118713
-0.0164795	-0.101013	-0.117493
-0.0152588	-0.103149	-0.118408
-0.0161743	-0.10437	-0.120544
-0.0180054	-0.105286	-0.123291
-0.0201416	-0.106812	-0.126953
-0.0228882	-0.107422	-0.13031
-0.0256348	-0.107727	-0.133362
-0.0286865	-0.107117	-0.135803
-0.0308228	-0.105286	-0.136108
-0.0323486	-0.102844	-0.135193
-0.032959	-0.0997925	-0.132751
-0.032959	-0.0964355	-0.129395
-0.0326538	-0.0933838	-0.126038
-0.0326538	-0.0897217	-0.122375
-0.0332642	-0.0863647	-0.119629
-0.0338745	-0.0842285	-0.118103
-0.0344849	-0.0839233	-0.118408
-0.0357056	-0.0845337	-0.120239
-0.0375366	-0.0854492	-0.122986
-0.0396729	-0.0863647	-0.126038
-0.0418091	-0.0872803	-0.129089
-0.0436401	-0.0881958	-0.131836
-0.043335	-0.0894165	-0.132751
-0.0415039	-0.0912476	-0.132751
-0.0384521	-0.0924683	-0.13092
-0.0350952	-0.0927734	-0.127869
-0.0314331	-0.0918579	-0.123291
-0.0292969	-0.0894165	-0.118713
-0.0292969	-0.0860596	-0.115356
-0.0311279	-0.0823975	-0.113525
-0.0323486	-0.0790405	-0.111389
-0.0326538	-0.0775146	-0.110168
-0.0317383	-0.0778198	-0.109558
-0.0311279	-0.0793457	-0.110474
-0.0305176	-0.0814819	-0.112
-0.0292969	-0.0839233	-0.11322
-0.0256348	-0.0878906	-0.113525
-0.020752	-0.0927734	-0.113525
-0.0158691	-0.0970459	-0.112915
-0.0109863	-0.100403	-0.111389
-0.00640869	-0.102539	-0.108948
-0.00244141	-0.103149	-0.105591
0	-0.102234	-0.102234
0	-0.0997925	-0.0997925
-0.00213623	-0.0961304	-0.0982666
-0.00579834	-0.0921631	-0.0979614
-0.00976563	-0.0878906	-0.0976563
-0.0128174	-0.0842285	-0.0970459
-0.015564	-0.0811768	-0.0967407
-0.0189209	-0.0790405	-0.0979614
-0.0222778	-0.0772095	-0.0994873
-0.0259399	-0.0756836	-0.101624
-0.0292969	-0.0741577	-0.103455
-0.0308228	-0.0741577	-0.10498
-0.0311279	-0.0747681	-0.105896
-0.0308228	-0.0756836	-0.106506
-0.0292969	-0.0778198	-0.107117
-0.0268555	-0.0802612	-0.107117
-0.0247192	-0.0817871	-0.106506
-0.022583	-0.0827026	-0.105286
-0.0195313	-0.0839233	-0.103455
-0.0158691	-0.0860596	-0.101929
-0.012207	-0.0881958	-0.100403
-0.0106812	-0.0894165	-0.100098
-0.0112915	-0.0891113	-0.100403
-0.0131226	-0.0875854	-0.100708
-0.0152588	-0.0854492	-0.100708
-0.0170898	-0.0836182	-0.100708
-0.0195313	-0.0820923	-0.101624
-0.0222778	-0.0799561	-0.102234
-0.0244141	-0.0778198	-0.102234
-0.0253296	-0.0756836	-0.101013
-0.0250244	-0.0744629	-0.0994873
-0.0241089	-0.0747681	-0.098877
-0.0231934	-0.0759888	-0.0991821
-0.0219727	-0.078125	-0.100098
-0.0201416	-0.0805664	-0.100708
-0.0177002	-0.0830078	-0.100708
-0.0149536	-0.0857544	-0.100708
-0.0128174	-0.088501	-0.101318
-0.0112915	-0.0897217	-0.101013
-0.0106812	-0.0894165	-0.100098
-0.010376	-0.0888062	-0.0991821
-0.00946045	-0.0878906	-0.0973511
-0.00854492	-0.0866699	-0.0952148
-0.0100708	-0.0848389	-0.0949097
-0.0143433	-0.0823975	-0.0967407
-0.0189209	-0.0799561	-0.098877
-0.0216675	-0.0787354	-0.100403
-0.0234985	-0.0775146	-0.101013
-0.0256348	-0.0759888	-0.101624
-0.0283813	-0.0741577	-0.102539
-0.0308228	-0.0714111	-0.102234
-0.0323486	-0.0668335	-0.0991821
-0.0326538	-0.0613403	-0.0939941
-0.0320435	-0.0546265	-0.0866699
-0.0311279	-0.0463867	-0.0775146
-0.0299072	-0.0375366	-0.0674438
-0.0289917	-0.0289917	-0.0579834
-0.0274658	-0.0216675	-0.0491333
-0.0256348	-0.0158691	-0.0415039
-0.0231934	-0.0115967	-0.03479
-0.0204468	-0.00823975	-0.0286865
-0.0167847	-0.00457764	-0.0213623
-0.012207	-0.000610352	-0.0128174
-0.00823975	0.00488281	-0.00335693
-0.00488281	0.0125122	0.00762939
-0.00335693	0.0231934	0.0198364
-0.00396729	0.0375366	0.0335693
-0.00518799	0.0543213	0.0491333
-0.00701904	0.0708008	0.0637817
-0.0100708	0.0863647	0.0762939
-0.0134277	0.0997925	0.0863647
-0.0167847	0.110474	0.093689
-0.020752	0.117798	0.0970459
-0.0241089	0.12146	0.0973511
-0.0268555	0.119934	0.0930786
-0.0283813	0.112915	0.0845337
-0.0280762	0.101318	0.0732422
-0.0274658	0.0866699	0.0592041
-0.0250244	0.0695801	0.0445557
-0.0222778	0.0518799	0.0296021
-0.020752	0.03479	0.0140381
-0.0213623	0.0192261	-0.00213623
-0.0231934	0.00427246	-0.0189209
-0.0253296	-0.0106812	-0.0360107
-0.027771	-0.0253296	-0.0531006
-0.0308228	-0.0396729	-0.0704956
-0.0335693	-0.0534058	-0.0869751
-0.0369263	-0.065918	-0.102844
-0.0402832	-0.0765991	-0.116882
-0.0436401	-0.0863647	-0.130005
-0.045166	-0.0961304	-0.141296
-0.0445557	-0.105286	-0.149841
-0.0408936	-0.114136	-0.155029
-0.0350952	-0.122375	-0.157471
-0.0286865	-0.129395	-0.158081
-0.0234985	-0.135193	-0.158691
-0.0195313	-0.140381	-0.159912
-0.0164795	-0.144348	-0.160828
-0.0143433	-0.147705	-0.162048
-0.0134277	-0.150452	-0.163879
-0.0134277	-0.153809	-0.167236
-0.0143433	-0.157166	-0.171509
-0.0164795	-0.161133	-0.177612
-0.0177002	-0.167236	-0.184937
-0.0164795	-0.175781	-0.192261
-0.0143433	-0.184631	-0.198975
-0.010376	-0.19104	-0.201416
-0.00518799	-0.194397	-0.199585
0	-0.191956	-0.191956
0.00427246	-0.181274	-0.177002
0.0112915	-0.161743	-0.150452
0.0201416	-0.131226	-0.111084
0.0286865	-0.0869751	-0.0582886
0.03479	-0.027771	0.00701904
0.0390625	0.0469971	0.0860596
0.0418091	0.136108	0.177917
0.0436401	0.237732	0.281372
0.0463867	0.345154	0.391541
0.0527954	0.450745	0.50354
0.0619507	0.547791	0.609741
0.0732422	0.631104	0.704346
0.0854492	0.696411	0.78186
0.0976563	0.740051	0.837708
0.108948	0.756226	0.865173
0.116882	0.739746	0.856628
0.118408	0.692139	0.810547
0.111694	0.618286	0.72998
0.0970459	0.523987	0.621033
0.0753784	0.415344	0.490723
0.0497437	0.300598	0.350342
0.0222778	0.187073	0.209351
-0.00549316	0.0811768	0.0756836
-0.0326538	-0.010376	-0.0430298
-0.0561523	-0.0848389	-0.140991
-0.0714111	-0.142212	-0.213623
-0.0778198	-0.181885	-0.259705
-0.0744629	-0.205994	-0.280457
-0.062561	-0.217896	-0.280457
-0.0469971	-0.219727	-0.266724
-0.0323486	-0.214539	-0.246887
-0.0210571	-0.204773	-0.22583
-0.0143433	-0.194092	-0.208435
-0.0106812	-0.184937	-0.195618
-0.00946045	-0.178223	-0.187683
-0.00976563	-0.17334	-0.183105
-0.012207	-0.169983	-0.18219
-0.0158691	-0.168152	-0.184021
-0.0192261	-0.167847	-0.187073
-0.0216675	-0.168457	-0.190125
-0.022583	-0.170288	-0.192871
-0.0222778	-0.172424	-0.194702
-0.020752	-0.174255	-0.195007
-0.0183105	-0.176697	-0.195007
-0.0149536	-0.178833	-0.193787
-0.0119019	-0.180054	-0.191956
-0.0088501	-0.180664	-0.189514
-0.00640869	-0.180359	-0.186768
-0.00457764	-0.179443	-0.184021
-0.00396729	-0.177917	-0.181885
-0.00366211	-0.176697	-0.180359
-0.00244141	-0.176086	-0.178528
-0.000610352	-0.176086	-0.176697
0.0012207	-0.176392	-0.175171
0.00152588	-0.175781	-0.174255
0.000610352	-0.174866	-0.174255
-0.000305176	-0.174255	-0.174561
-0.000915527	-0.174561	-0.175476
-0.000915527	-0.174866	-0.175781
0	-0.175171	-0.175171
0.00183105	-0.175781	-0.17395
0.00335693	-0.175476	-0.172119
0.00457764	-0.174561	-0.169983
0.00671387	-0.173645	-0.166931
0.00823975	-0.173035	-0.164795
0.00823975	-0.172119	-0.163879
0.00762939	-0.171204	-0.163574
0.00701904	-0.169678	-0.162659
0.00640869	-0.167542	-0.161133
0.00549316	-0.16571	-0.160217
0.00366211	-0.163879	-0.160217
0.0012207	-0.161438	-0.160217
-0.000610352	-0.158997	-0.159607
-0.0012207	-0.157776	-0.158997
-0.000915527	-0.156555	-0.157471
-0.0012207	-0.154419	-0.15564
-0.00244141	-0.151672	-0.154114
-0.00305176	-0.149841	-0.152893
-0.00183105	-0.150146	-0.151978
0.000305176	-0.151367	-0.151062
0.000915527	-0.151978	-0.151062
0.000915527	-0.153198	-0.152283
0.00244141	-0.155029	-0.152588
0.00579834	-0.157776	-0.151978
0.00976563	-0.160522	-0.150757
0.0137329	-0.162659	-0.148926
0.0170898	-0.163574	-0.146484
0.0198364	-0.163269	-0.143433
0.0216675	-0.161133	-0.139465
0.0228882	-0.157166	-0.134277
0.0228882	-0.151978	-0.129089
0.0216675	-0.146179	-0.124512
0.0186157	-0.140686	-0.12207
0.0164795	-0.137329	-0.12085
0.0146484	-0.135803	-0.121155
0.012207	-0.134583	-0.122375
0.0106812	-0.134277	-0.123596
0.0106812	-0.135193	-0.124512
0.012207	-0.137634	-0.125427
0.0149536	-0.141296	-0.126343
0.0198364	-0.146179	-0.126343
0.0253296	-0.150757	-0.125427
0.0311279	-0.154114	-0.122986
0.0366211	-0.155945	-0.119324
0.0415039	-0.156555	-0.115051
0.0448608	-0.15625	-0.111389
0.0479126	-0.15564	-0.107727
0.050354	-0.155029	-0.104675
0.0518799	-0.153809	-0.101929
0.0531006	-0.152588	-0.0994873
0.0546265	-0.152283	-0.0976563
0.0567627	-0.152893	-0.0961304
0.0595093	-0.154724	-0.0952148
0.0619507	-0.15686	-0.0949097
0.0634766	-0.159302	-0.0958252
0.065918	-0.162659	-0.0967407
0.0698853	-0.167236	-0.0973511
0.0747681	-0.172119	-0.0973511
0.0784302	-0.175781	-0.0973511
0.0814819	-0.177917	-0.0964355
0.083313	-0.179138	-0.0958252
0.0839233	-0.179138	-0.0952148
0.0845337	-0.178833	-0.0942993
0.0842285	-0.178223	-0.0939941
0.0836182	-0.176697	-0.0930786
0.083313	-0.174866	-0.0915527
0.0827026	-0.172424	-0.0897217
0.0814819	-0.170288	-0.0888062
0.0808716	-0.169067	-0.0881958
0.0808716	-0.168457	-0.0875854
0.0814819	-0.168762	-0.0872803
0.0817871	-0.169067	-0.0872803
0.0820923	-0.168762	-0.0866699
0.0830078	-0.167236	-0.0842285
0.0839233	-0.164185	-0.0802612
0.0854492	-0.160828	-0.0753784
0.0872803	-0.157166	-0.0698853
0.0872803	-0.152893	-0.0656128
0.0842285	-0.14801	-0.0637817
0.0790405	-0.141602	-0.062561
0.0720215	-0.134888	-0.0628662
0.0643921	-0.127869	-0.0634766
0.0564575	-0.12146	-0.0650024
0.0473022	-0.115967	-0.0686646
0.0363159	-0.110474	-0.0741577
0.0253296	-0.105286	-0.0799561
0.0152588	-0.100403	-0.085144
0.00701904	-0.09552	-0.088501
0.000915527	-0.0924683	-0.0915527
-0.00366211	-0.0906372	-0.0942993
-0.00823975	-0.0875854	-0.0958252
-0.0137329	-0.0836182	-0.0973511
-0.0189209	-0.0796509	-0.0985718
-0.022583	-0.0772095	-0.0997925
-0.0238037	-0.0772095	-0.101013
-0.0247192	-0.0778198	-0.102539
-0.0259399	-0.078125	-0.104065
-0.027771	-0.0784302	-0.106201
-0.0302124	-0.078125	-0.108337
-0.0326538	-0.0784302	-0.111084
-0.0344849	-0.0799561	-0.114441
-0.0357056	-0.0820923	-0.117798
-0.0369263	-0.0839233	-0.12085
-0.0384521	-0.0854492	-0.123901
-0.0402832	-0.0860596	-0.126343
-0.0424194	-0.0869751	-0.129395
-0.0439453	-0.088501	-0.132446
-0.0448608	-0.090332	-0.135193
-0.0454712	-0.0918579	-0.137329
-0.0454712	-0.0924683	-0.137939
-0.0439453	-0.0930786	-0.137024
-0.0421143	-0.0933838	-0.135498
-0.0408936	-0.0930786	-0.133972
-0.0393677	-0.0933838	-0.132751
-0.0375366	-0.093689	-0.131226
-0.0363159	-0.0933838	-0.1297
-0.0366211	-0.0921631	-0.128784
-0.0375366	-0.0906372	-0.128174
-0.0375366	-0.0897217	-0.127258
-0.0366211	-0.0891113	-0.125732
-0.0363159	-0.0881958	-0.124512
-0.0372314	-0.0866699	-0.123901
-0.0384521	-0.0848389	-0.123291
-0.0387573	-0.0842285	-0.122986
-0.0372314	-0.0845337	-0.121765
-0.0354004	-0.0848389	-0.120239
-0.0335693	-0.0848389	-0.118408
-0.0326538	-0.0848389	-0.117493
-0.0320435	-0.0848389	-0.116882
-0.0308228	-0.0848389	-0.115662
-0.0289917	-0.0848389	-0.113831
-0.0271606	-0.0842285	-0.111389
-0.0268555	-0.0823975	-0.109253
-0.027771	-0.0790405	-0.106812
-0.0292969	-0.0747681	-0.104065
-0.0314331	-0.0704956	-0.101929
-0.0338745	-0.0665283	-0.100403
-0.0354004	-0.0634766	-0.098877
-0.0363159	-0.0616455	-0.0979614
-0.0354004	-0.06073	-0.0961304
-0.032959	-0.0610352	-0.0939941
-0.0292969	-0.0622559	-0.0915527
-0.0259399	-0.0640869	-0.0900269
-0.0231934	-0.0662231	-0.0894165
-0.0213623	-0.0680542	-0.0894165
-0.0219727	-0.0689697	-0.0909424
-0.0234985	-0.0692749	-0.0927734
-0.0256348	-0.0695801	-0.0952148
-0.0274658	-0.0695801	-0.0970459
-0.0299072	-0.0686646	-0.0985718
-0.032959	-0.0671387	-0.100098
-0.0357056	-0.0656128	-0.101318
-0.0372314	-0.0653076	-0.102539
-0.0369263	-0.0656128	-0.102539
-0.03479	-0.0665283	-0.101318
-0.0320435	-0.0671387	-0.0991821
-0.0280762	-0.067749	-0.0958252
-0.0238037	-0.0686646	-0.0924683
-0.020752	-0.0683594	-0.0891113
-0.0198364	-0.0680542	-0.0878906
-0.0204468	-0.0671387	-0.0875854
-0.0222778	-0.065918	-0.0881958
-0.0247192	-0.0643921	-0.0891113
-0.0262451	-0.0628662	-0.0891113
-0.0274658	-0.0616455	-0.0891113
-0.0283813	-0.0604248	-0.0888062
-0.0280762	-0.0601196	-0.0881958
-0.0259399	-0.0616455	-0.0875854
-0.0234985	-0.0631714	-0.0866699
-0.0210571	-0.0643921	-0.0854492
-0.0192261	-0.0668335	-0.0860596
-0.0161743	-0.0701904	-0.0863647
-0.0128174	-0.0741577	-0.0869751
-0.00976563	-0.078125	-0.0878906
-0.00762939	-0.0808716	-0.088501
-0.00732422	-0.0823975	-0.0897217
-0.00946045	-0.0817871	-0.0912476
-0.012207	-0.0796509	-0.0918579
-0.0143433	-0.0769043	-0.0912476
-0.0158691	-0.0741577	-0.0900269
-0.017395	-0.0717163	-0.0891113
-0.0189209	-0.0692749	-0.0881958
-0.0213623	-0.0662231	-0.0875854
-0.0228882	-0.0640869	-0.0869751
-0.0231934	-0.0634766	-0.0866699
-0.0222778	-0.0646973	-0.0869751
-0.0210571	-0.0671387	-0.0881958
-0.0204468	-0.0701904	-0.0906372
-0.0201416	-0.072937	-0.0930786
-0.0201416	-0.0747681	-0.0949097
-0.0201416	-0.0756836	-0.0958252
-0.0210571	-0.0750732	-0.0961304
-0.0228882	-0.0741577	-0.0970459
-0.0247192	-0.072937	-0.0976563
-0.0259399	-0.0720215	-0.0979614
-0.0265503	-0.0704956	-0.0970459
-0.0268555	-0.0689697	-0.0958252
-0.0271606	-0.0680542	-0.0952148
-0.0262451	-0.067749	-0.0939941
-0.0247192	-0.0686646	-0.0933838
-0.0231934	-0.0701904	-0.0933838
-0.022583	-0.0717163	-0.0942993
-0.022583	-0.072937	-0.09552
-0.022583	-0.0738525	-0.0964355
-0.0231934	-0.0750732	-0.0982666
-0.0238037	-0.0756836	-0.0994873
-0.0247192	-0.0759888	-0.100708
-0.0268555	-0.0747681	-0.101624
-0.0289917	-0.071106	-0.100098
-0.0311279	-0.0653076	-0.0964355
-0.032959	-0.0570679	-0.0900269
-0.03479	-0.0473022	-0.0820923
-0.0360107	-0.0350952	-0.071106
-0.0354004	-0.0216675	-0.0570679
-0.032959	-0.0088501	-0.0418091
-0.0296021	0.00152588	-0.0280762
-0.0271606	0.0106812	-0.0164795
-0.0241089	0.0170898	-0.00701904
-0.0204468	0.0204468	0
-0.0161743	0.0216675	0.00549316
-0.0119019	0.0222778	0.010376
-0.00732422	0.0228882	0.015564
-0.00396729	0.0247192	0.020752
-0.00305176	0.0296021	0.0265503
-0.00427246	0.0384521	0.0341797
-0.00762939	0.0515747	0.0439453
-0.0119019	0.067749	0.0558472
-0.0161743	0.0857544	0.0695801
-0.0204468	0.104065	0.0836182
-0.0250244	0.122375	0.0973511
-0.0299072	0.13855	0.108643
-0.0338745	0.149536	0.115662
-0.0350952	0.153809	0.118713
-0.0341797	0.151367	0.117188
-0.0323486	0.144043	0.111694
-0.0302124	0.132751	0.102539
-0.0289917	0.119324	0.090332
-0.0280762	0.104065	0.0759888
-0.0265503	0.0869751	0.0604248
-0.0250244	0.0686646	0.0436401
-0.0241089	0.0500488	0.0259399
-0.0247192	0.0317383	0.00701904
-0.0271606	0.0140381	-0.0131226
-0.0308228	-0.00274658	-0.0335693
-0.0354004	-0.0183105	-0.0537109
-0.0408936	-0.0320435	-0.072937
-0.0457764	-0.0457764	-0.0915527
-0.0491333	-0.0595093	-0.108643
-0.050354	-0.0732422	-0.123596
-0.0494385	-0.0863647	-0.135803
-0.0466919	-0.0976563	-0.144348
-0.0424194	-0.106812	-0.149231
-0.0372314	-0.113525	-0.150757
-0.0314331	-0.118713	-0.150146
-0.0247192	-0.123291	-0.14801
-0.0177002	-0.126953	-0.144653
-0.0119019	-0.130005	-0.141907
-0.00915527	-0.131836	-0.140991
-0.00946045	-0.132751	-0.142212
-0.0115967	-0.133972	-0.145569
-0.0146484	-0.136719	-0.151367
-0.017395	-0.142212	-0.159607
-0.0186157	-0.150757	-0.169373
-0.0170898	-0.162964	-0.180054
-0.0115967	-0.177917	-0.189514
-0.00335693	-0.192261	-0.195618
0.00488281	-0.202332	-0.197449
0.012207	-0.205383	-0.193176
0.0195313	-0.19928	-0.179749
0.027771	-0.18219	-0.154419
0.0375366	-0.151978	-0.114441
0.0463867	-0.107727	-0.0613403
0.0518799	-0.0476074	0.00427246
0.0546265	0.0296021	0.0842285
0.0564575	0.123596	0.180054
0.0579834	0.232849	0.290833
0.0613403	0.350342	0.411682
0.0692749	0.465698	0.534973
0.0808716	0.573425	0.654297
0.0942993	0.668335	0.762634
0.109253	0.744324	0.853577
0.124817	0.793457	0.918274
0.137939	0.810547	0.948486
0.145874	0.793762	0.939636
0.145874	0.744019	0.889893
0.136719	0.664673	0.801392
0.118103	0.559998	0.678101
0.0939941	0.437927	0.531921
0.065918	0.308228	0.374146
0.0357056	0.180664	0.21637
0.00457764	0.0643921	0.0689697
-0.0250244	-0.0338745	-0.0588989
-0.0497437	-0.110474	-0.160217
-0.0656128	-0.165405	-0.231018
-0.0723267	-0.198364	-0.270691
-0.0708008	-0.212708	-0.283508
-0.062561	-0.213013	-0.275574
-0.050354	-0.203857	-0.254211
-0.0375366	-0.189514	-0.227051
-0.0262451	-0.17395	-0.200195
-0.0177002	-0.160217	-0.177917
-0.0119019	-0.150146	-0.162048
-0.0100708	-0.143738	-0.153809
-0.0109863	-0.140991	-0.151978
-0.0125122	-0.141296	-0.153809
-0.0143433	-0.143738	-0.158081
-0.0158691	-0.147095	-0.162964
-0.017395	-0.150146	-0.167542
-0.0186157	-0.152893	-0.171509
-0.0183105	-0.15564	-0.17395
-0.0180054	-0.15686	-0.174866
-0.0183105	-0.155945	-0.174255
-0.0195313	-0.153503	-0.173035
-0.0210571	-0.149841	-0.170898
-0.0213623	-0.14679	-0.168152
-0.0210571	-0.145264	-0.166321
-0.0192261	-0.145874	-0.1651
-0.015564	-0.149231	-0.164795
-0.0109863	-0.153809	-0.164795
-0.00701904	-0.158386	-0.165405
-0.00335693	-0.162048	-0.165405
0.000610352	-0.1651	-0.16449
0.00457764	-0.168762	-0.164185
0.00671387	-0.171509	-0.164795
0.00671387	-0.173035	-0.166321
0.00427246	-0.172119	-0.167847
0.000610352	-0.169067	-0.168457
-0.00366211	-0.16449	-0.168152
-0.00762939	-0.159607	-0.167236
-0.0112915	-0.154114	-0.165405
-0.0140381	-0.148926	-0.162964
-0.015564	-0.145264	-0.160828
-0.0149536	-0.143738	-0.158691
-0.0128174	-0.143738	-0.156555
-0.0109863	-0.144043	-0.155029
-0.0100708	-0.143738	-0.153809
-0.00976563	-0.142517	-0.152283
-0.00976563	-0.140686	-0.150452
-0.0109863	-0.137634	-0.148621
-0.0125122	-0.134888	-0.1474
-0.0137329	-0.132751	-0.146484
-0.0137329	-0.132141	-0.145874
-0.0131226	-0.132446	-0.145569
-0.0109863	-0.133667	-0.144653
-0.00823975	-0.135193	-0.143433
-0.00488281	-0.136719	-0.141602
-0.000915527	-0.137939	-0.138855
0.00213623	-0.13916	-0.137024
0.00427246	-0.140381	-0.136108
0.00640869	-0.142212	-0.135803
0.00854492	-0.143127	-0.134583
0.0100708	-0.143127	-0.133057
0.0106812	-0.142517	-0.131836
0.0109863	-0.141907	-0.13092
0.0109863	-0.140686	-0.1297
0.0112915	-0.140076	-0.128784
0.0115967	-0.139771	-0.128174
0.0128174	-0.140076	-0.127258
0.0146484	-0.140381	-0.125732
0.0170898	-0.140686	-0.123596
0.0201416	-0.140381	-0.120239
0.0234985	-0.140076	-0.116577
0.0259399	-0.139465	-0.113525
0.0268555	-0.13855	-0.111694
0.0271606	-0.137329	-0.110168
0.0271606	-0.135803	-0.108643
0.0289917	-0.136108	-0.107117
0.0311279	-0.136414	-0.105286
0.0308228	-0.134277	-0.103455
0.0286865	-0.130615	-0.101929
0.0265503	-0.127258	-0.100708
0.0250244	-0.125122	-0.100098
0.0241089	-0.122986	-0.098877
0.0244141	-0.120544	-0.0961304
0.0259399	-0.119324	-0.0933838
0.0292969	-0.119934	-0.0906372
0.0338745	-0.121155	-0.0872803
0.0378418	-0.121765	-0.0839233
0.0415039	-0.122986	-0.0814819
0.0454712	-0.125427	-0.0799561
0.0488281	-0.128174	-0.0793457
0.0515747	-0.131531	-0.0799561
0.0534058	-0.134277	-0.0808716
0.0540161	-0.135803	-0.0817871
0.0537109	-0.136108	-0.0823975
0.0531006	-0.136108	-0.0830078
0.0524902	-0.135193	-0.0827026
0.0512695	-0.134583	-0.083313
0.0500488	-0.133362	-0.083313
0.0497437	-0.132141	-0.0823975
0.0524902	-0.131836	-0.0793457
0.0558472	-0.132141	-0.0762939
0.0595093	-0.132141	-0.0726318
0.0622559	-0.132141	-0.0698853
0.0656128	-0.133057	-0.0674438
0.0701904	-0.135193	-0.0650024
0.0756836	-0.137329	-0.0616455
0.0808716	-0.140076	-0.0592041
0.0857544	-0.143127	-0.057373
0.0891113	-0.144958	-0.0558472
0.0906372	-0.145569	-0.0549316
0.0906372	-0.145264	-0.0546265
0.0897217	-0.144043	-0.0543213
0.0875854	-0.141907	-0.0543213
0.0836182	-0.138245	-0.0546265
0.0778198	-0.133057	-0.0552368
0.0695801	-0.126038	-0.0564575
0.0598145	-0.118103	-0.0582886
0.0509644	-0.110474	-0.0595093
0.0445557	-0.10437	-0.0598145
0.0393677	-0.0991821	-0.0598145
0.0341797	-0.0946045	-0.0604248
0.0283813	-0.0906372	-0.0622559
0.0234985	-0.0875854	-0.0640869
0.0198364	-0.0857544	-0.065918
0.0170898	-0.085144	-0.0680542
0.0143433	-0.0857544	-0.0714111
0.0106812	-0.0857544	-0.0750732
0.00610352	-0.0848389	-0.0787354
0.000610352	-0.0823975	-0.0817871
-0.00640869	-0.078125	-0.0845337
-0.0131226	-0.0741577	-0.0872803
-0.0186157	-0.0708008	-0.0894165
-0.0244141	-0.0683594	-0.0927734
-0.0308228	-0.0668335	-0.0976563
-0.0375366	-0.0653076	-0.102844
-0.0439453	-0.0646973	-0.108643
-0.0497437	-0.0643921	-0.114136
-0.0546265	-0.0643921	-0.119019
-0.0576782	-0.0671387	-0.124817
-0.0570679	-0.0723267	-0.129395
-0.0546265	-0.0787354	-0.133362
-0.0509644	-0.0845337	-0.135498
-0.0473022	-0.0891113	-0.136414
-0.0436401	-0.0927734	-0.136414
-0.039978	-0.09552	-0.135498
-0.0360107	-0.0970459	-0.133057
-0.0332642	-0.0973511	-0.130615
-0.0332642	-0.0964355	-0.1297
-0.0357056	-0.0946045	-0.13031
-0.0396729	-0.0921631	-0.131836
-0.0442505	-0.088501	-0.132751
-0.0485229	-0.0839233	-0.132446
-0.0521851	-0.0796509	-0.131836
-0.055542	-0.0759888	-0.131531
-0.0564575	-0.0738525	-0.13031
-0.0549316	-0.0732422	-0.128174
-0.0515747	-0.0741577	-0.125732
-0.0473022	-0.0762939	-0.123596
-0.043335	-0.0787354	-0.12207
-0.0411987	-0.0814819	-0.122681
-0.0402832	-0.0839233	-0.124207
-0.0405884	-0.0857544	-0.126343
-0.0408936	-0.0866699	-0.127563
-0.0408936	-0.0875854	-0.128479
-0.0418091	-0.0878906	-0.1297
-0.0424194	-0.0869751	-0.129395
-0.0415039	-0.0857544	-0.127258
-0.0390625	-0.0842285	-0.123291
-0.0360107	-0.0823975	-0.118408
-0.0323486	-0.0805664	-0.112915
-0.0286865	-0.0787354	-0.107422
-0.0262451	-0.0765991	-0.102844
-0.0265503	-0.0738525	-0.100403
-0.0289917	-0.0708008	-0.0997925
-0.0320435	-0.0686646	-0.100708
-0.0350952	-0.0671387	-0.102234
-0.0384521	-0.0674438	-0.105896
-0.0421143	-0.0683594	-0.110474
-0.0460815	-0.0692749	-0.115356
-0.0488281	-0.0704956	-0.119324
-0.0500488	-0.0723267	-0.122375
-0.0497437	-0.0738525	-0.123596
-0.0488281	-0.0756836	-0.124512
-0.0469971	-0.0778198	-0.124817
-0.0445557	-0.0793457	-0.123901
-0.0424194	-0.0796509	-0.12207
-0.0396729	-0.0790405	-0.118713
-0.0366211	-0.078125	-0.114746
-0.0341797	-0.0772095	-0.111389
-0.0326538	-0.0762939	-0.108948
-0.0320435	-0.0747681	-0.106812
-0.0317383	-0.0735474	-0.105286
-0.0296021	-0.0732422	-0.102844
-0.0262451	-0.0741577	-0.100403
-0.0231934	-0.0753784	-0.0985718
-0.0216675	-0.0765991	-0.0982666
-0.0222778	-0.0775146	-0.0997925
-0.0234985	-0.0778198	-0.101318
-0.0244141	-0.0778198	-0.102234
-0.0256348	-0.0775146	-0.103149
-0.0274658	-0.0762939	-0.10376
-0.0302124	-0.0735474	-0.10376
-0.0338745	-0.0698853	-0.10376
-0.038147	-0.065918	-0.104065
-0.043335	-0.0613403	-0.104675
-0.0485229	-0.0579834	-0.106506
-0.0506592	-0.0570679	-0.107727
-0.0506592	-0.0579834	-0.108643
-0.0518799	-0.0582886	-0.110168
-0.0531006	-0.0585938	-0.111694
-0.0527954	-0.0601196	-0.112915
-0.0509644	-0.0634766	-0.114441
-0.0476074	-0.0671387	-0.114746
-0.0427246	-0.0704956	-0.11322
-0.0363159	-0.0747681	-0.111084
-0.0292969	-0.0790405	-0.108337
-0.0238037	-0.0817871	-0.105591
-0.0198364	-0.0827026	-0.102539
-0.0161743	-0.0820923	-0.0982666
-0.0131226	-0.0817871	-0.0949097
-0.0109863	-0.0817871	-0.0927734
-0.0106812	-0.0820923	-0.0927734
-0.012207	-0.0820923	-0.0942993
-0.0164795	-0.0811768	-0.0976563
-0.022583	-0.0784302	-0.101013
-0.0289917	-0.0753784	-0.10437
-0.0354004	-0.072937	-0.108337
-0.0408936	-0.0704956	-0.111389
-0.0442505	-0.0692749	-0.113525
-0.0457764	-0.0692749	-0.115051
-0.0457764	-0.0701904	-0.115967
-0.0445557	-0.0714111	-0.115967
-0.0430298	-0.0723267	-0.115356
-0.0408936	-0.072937	-0.113831
-0.038147	-0.0738525	-0.112
-0.0354004	-0.0741577	-0.109558
-0.0338745	-0.0735474	-0.107422
-0.0335693	-0.0720215	-0.105591
-0.0335693	-0.0701904	-0.10376
-0.0335693	-0.0692749	-0.102844
-0.0338745	-0.0689697	-0.102844
-0.0344849	-0.0683594	-0.102844
-0.0354004	-0.0674438	-0.102844
-0.03479	-0.0674438	-0.102234
-0.0326538	-0.0683594	-0.101013
-0.0305176	-0.0701904	-0.100708
-0.0286865	-0.0720215	-0.100708
-0.0274658	-0.072937	-0.100403
-0.0271606	-0.0723267	-0.0994873
-0.027771	-0.0692749	-0.0970459
-0.0286865	-0.0634766	-0.0921631
-0.0308228	-0.055542	-0.0863647
-0.0341797	-0.0448608	-0.0790405
-0.038147	-0.032959	-0.071106
-0.0408936	-0.0210571	-0.0619507
-0.0418091	-0.0100708	-0.0518799
-0.0424194	-0.000305176	-0.0427246
-0.0424194	0.00762939	-0.03479
-0.0408936	0.0128174	-0.0280762
-0.0372314	0.0158691	-0.0213623
-0.0308228	0.0167847	-0.0140381
-0.0238037	0.0177002	-0.00610352
-0.0186157	0.0204468	0.00183105
-0.0152588	0.0262451	0.0109863
-0.0137329	0.0341797	0.0204468
-0.0137329	0.045166	0.0314331
-0.015564	0.0592041	0.0436401
-0.0198364	0.0762939	0.0564575
-0.0247192	0.093689	0.0689697
-0.0292969	0.109558	0.0802612
-0.0326538	0.12146	0.0888062
-0.0341797	0.129089	0.0949097
-0.0338745	0.13092	0.0970459
-0.0320435	0.128479	0.0964355
-0.0292969	0.122375	0.0930786
-0.0265503	0.11261	0.0860596
-0.0244141	0.101318	0.0769043
-0.0238037	0.0894165	0.0656128
-0.0256348	0.078125	0.0524902
-0.0302124	0.0671387	0.0369263
-0.0366211	0.0564575	0.0198364
-0.0442505	0.045166	0.000915527
-0.050354	0.0320435	-0.0183105
-0.0543213	0.0167847	-0.0375366
-0.0561523	-0.000305176	-0.0564575
-0.0546265	-0.0198364	-0.0744629
-0.0506592	-0.0405884	-0.0912476
-0.0454712	-0.0610352	-0.106506
-0.0393677	-0.0796509	-0.119019
-0.0326538	-0.09552	-0.128174
-0.0259399	-0.108643	-0.134583
-0.0219727	-0.118103	-0.140076
-0.022583	-0.122681	-0.145264
-0.027771	-0.122986	-0.150757
-0.0344849	-0.119934	-0.154419
-0.039978	-0.115967	-0.155945
-0.0445557	-0.11261	-0.157166
-0.0485229	-0.110168	-0.158691
-0.0509644	-0.109558	-0.160522
-0.050354	-0.111389	-0.161743
-0.0454712	-0.117493	-0.162964
-0.0366211	-0.127869	-0.16449
-0.0256348	-0.142212	-0.167847
-0.0146484	-0.160522	-0.175171
-0.00366211	-0.180969	-0.184631
0.00549316	-0.200195	-0.194702
0.0125122	-0.215759	-0.203247
0.0167847	-0.224609	-0.207825
0.0189209	-0.224609	-0.205688
0.0201416	-0.213318	-0.193176
0.0216675	-0.188293	-0.166626
0.0238037	-0.147095	-0.123291
0.0280762	-0.090332	-0.0622559
0.0338745	-0.0170898	0.0167847
0.039978	0.0738525	0.113831
0.0466919	0.18219	0.228882
0.0558472	0.302734	0.358582
0.0683594	0.42572	0.49408
0.0839233	0.542603	0.626526
0.0997925	0.647278	0.74707
0.115051	0.734253	0.849304
0.130005	0.794678	0.924683
0.142822	0.821838	0.964661
0.149536	0.813904	0.96344
0.14801	0.770874	0.918884
0.138245	0.69397	0.832214
0.121765	0.588684	0.710449
0.098877	0.463257	0.562134
0.0720215	0.328674	0.400696
0.0421143	0.195313	0.237427
0.0115967	0.0726318	0.0842285
-0.017395	-0.0311279	-0.0485229
-0.0424194	-0.112	-0.154419
-0.0601196	-0.167847	-0.227966
-0.0695801	-0.19989	-0.26947
-0.071106	-0.211487	-0.282593
-0.0671387	-0.20752	-0.274658
-0.0604248	-0.192871	-0.253296
-0.0521851	-0.17395	-0.226135
-0.0427246	-0.15625	-0.198975
-0.0344849	-0.142517	-0.177002
-0.0296021	-0.133057	-0.162659
-0.0280762	-0.128784	-0.15686
-0.0280762	-0.130005	-0.158081
-0.0289917	-0.135193	-0.164185
-0.0292969	-0.142822	-0.172119
-0.0280762	-0.151367	-0.179443
-0.0259399	-0.159912	-0.185852
-0.022583	-0.167542	-0.190125
-0.0177002	-0.173645	-0.191345
-0.012207	-0.177307	-0.189514
-0.00823975	-0.178223	-0.186462
-0.00610352	-0.177307	-0.183411
-0.00488281	-0.176086	-0.180969
-0.00427246	-0.174561	-0.178833
-0.00488281	-0.172424	-0.177307
-0.00610352	-0.169678	-0.175781
-0.00732422	-0.167236	-0.174561
-0.00823975	-0.1651	-0.17334
-0.00915527	-0.162659	-0.171814
-0.0106812	-0.160522	-0.171204
-0.0131226	-0.158386	-0.171509
-0.015564	-0.15686	-0.172424
-0.017395	-0.155334	-0.172729
-0.0183105	-0.153809	-0.172119
-0.0177002	-0.152588	-0.170288
-0.017395	-0.151062	-0.168457
-0.0177002	-0.149536	-0.167236
-0.0180054	-0.14801	-0.166016
-0.0183105	-0.14679	-0.1651
-0.0180054	-0.146179	-0.164185
-0.0161743	-0.146484	-0.162659
-0.0134277	-0.147095	-0.160522
-0.0100708	-0.147705	-0.157776
-0.00610352	-0.148926	-0.155029
-0.00183105	-0.149841	-0.151672
0.00183105	-0.150452	-0.148621
0.00335693	-0.150146	-0.14679
0.00366211	-0.149536	-0.145874
0.00366211	-0.148621	-0.144958
0.00396729	-0.148315	-0.144348
0.00457764	-0.148621	-0.144043
0.00518799	-0.148621	-0.143433
0.00518799	-0.148621	-0.143433
0.00488281	-0.148315	-0.143433
0.00427246	-0.1474	-0.143127
0.00366211	-0.146179	-0.142517
0.00366211	-0.144653	-0.140991
0.00427246	-0.142212	-0.137939
0.00488281	-0.138855	-0.133972
0.00518799	-0.134583	-0.129395
0.00579834	-0.130615	-0.124817
0.00579834	-0.126343	-0.120544
0.00427246	-0.12207	-0.117798
0.00335693	-0.118408	-0.115051
0.00427246	-0.117798	-0.113525
0.00701904	-0.119324	-0.112305
0.0106812	-0.122375	-0.111694
0.0143433	-0.126038	-0.111694
0.0180054	-0.13031	-0.112305
0.0216675	-0.134583	-0.112915
0.0256348	-0.138855	-0.11322
0.0299072	-0.142517	-0.11261
0.0335693	-0.144653	-0.111084
0.0369263	-0.144958	-0.108032
0.0393677	-0.143433	-0.104065
0.0402832	-0.139771	-0.0994873
0.0390625	-0.134583	-0.09552
0.0366211	-0.128784	-0.0921631
0.0344849	-0.123596	-0.0891113
0.0326538	-0.119324	-0.0866699
0.0308228	-0.114746	-0.0839233
0.0296021	-0.111084	-0.0814819
0.0283813	-0.108948	-0.0805664
0.0271606	-0.108032	-0.0808716
0.0268555	-0.108948	-0.0820923
0.0283813	-0.111084	-0.0827026
0.0317383	-0.114441	-0.0827026
0.0363159	-0.117798	-0.0814819
0.0408936	-0.120544	-0.0796509
0.045166	-0.122681	-0.0775146
0.050354	-0.124817	-0.0744629
0.0567627	-0.126953	-0.0701904
0.0631714	-0.128784	-0.0656128
0.067749	-0.130005	-0.0622559
0.0692749	-0.13031	-0.0610352
0.0698853	-0.13092	-0.0610352
0.0698853	-0.132141	-0.0622559
0.0695801	-0.133667	-0.0640869
0.067749	-0.134583	-0.0668335
0.0650024	-0.134583	-0.0695801
0.0616455	-0.134583	-0.072937
0.0579834	-0.134277	-0.0762939
0.0558472	-0.134277	-0.0784302
0.0561523	-0.135498	-0.0793457
0.0598145	-0.137939	-0.078125
0.0653076	-0.140686	-0.0753784
0.0708008	-0.142212	-0.0714111
0.0769043	-0.143127	-0.0662231
0.0827026	-0.143738	-0.0610352
0.088501	-0.144043	-0.055542
0.093689	-0.144958	-0.0512695
0.0976563	-0.145874	-0.0482178
0.0994873	-0.145264	-0.0457764
0.0991821	-0.143738	-0.0445557
0.0964355	-0.140686	-0.0442505
0.0909424	-0.137024	-0.0460815
0.083313	-0.132446	-0.0491333
0.0747681	-0.127563	-0.0527954
0.0662231	-0.122375	-0.0561523
0.0576782	-0.117493	-0.0598145
0.0491333	-0.112305	-0.0631714
0.0393677	-0.106506	-0.0671387
0.0289917	-0.0997925	-0.0708008
0.0195313	-0.0930786	-0.0735474
0.0112915	-0.0869751	-0.0756836
0.00518799	-0.0827026	-0.0775146
0.000610352	-0.0802612	-0.0796509
-0.00335693	-0.0787354	-0.0820923
-0.00732422	-0.0775146	-0.0848389
-0.012207	-0.0765991	-0.0888062
-0.0167847	-0.0759888	-0.0927734
-0.0201416	-0.0769043	-0.0970459
-0.0231934	-0.0784302	-0.101624
-0.0271606	-0.0793457	-0.106506
-0.0326538	-0.0784302	-0.111084
-0.0396729	-0.0753784	-0.115051
-0.0476074	-0.0717163	-0.119324
-0.0543213	-0.0686646	-0.122986
-0.0592041	-0.0665283	-0.125732
-0.0613403	-0.0653076	-0.126648
-0.0610352	-0.0656128	-0.126648
-0.0588989	-0.067749	-0.126648
-0.0546265	-0.071106	-0.125732
-0.0488281	-0.0753784	-0.124207
-0.0424194	-0.0802612	-0.122681
-0.0363159	-0.0848389	-0.121155
-0.0320435	-0.0891113	-0.121155
-0.0292969	-0.0921631	-0.12146
-0.0283813	-0.0939941	-0.122375
-0.0286865	-0.0949097	-0.123596
-0.0317383	-0.093689	-0.125427
-0.0378418	-0.0900269	-0.127869
-0.0460815	-0.0848389	-0.13092
-0.0537109	-0.0805664	-0.134277
-0.0582886	-0.0787354	-0.137024
-0.0592041	-0.0787354	-0.137939
-0.0570679	-0.0796509	-0.136719
-0.0537109	-0.0796509	-0.133362
-0.050354	-0.0793457	-0.1297
-0.0469971	-0.0796509	-0.126648
-0.0439453	-0.0805664	-0.124512
-0.0411987	-0.0814819	-0.122681
-0.0390625	-0.0811768	-0.120239
-0.038147	-0.0799561	-0.118103
-0.0384521	-0.078125	-0.116577
-0.0405884	-0.0756836	-0.116272
-0.043335	-0.0738525	-0.117188
-0.0454712	-0.0726318	-0.118103
-0.0466919	-0.0714111	-0.118103
-0.0460815	-0.0708008	-0.116882
-0.0448608	-0.0704956	-0.115356
-0.0427246	-0.071106	-0.113831
-0.039978	-0.0723267	-0.112305
-0.0369263	-0.0741577	-0.111084
-0.0335693	-0.0756836	-0.109253
-0.0308228	-0.0762939	-0.107117
-0.0292969	-0.0762939	-0.105591
-0.0289917	-0.0762939	-0.105286
-0.0296021	-0.0759888	-0.105591
-0.0311279	-0.0753784	-0.106506
-0.0332642	-0.0732422	-0.106506
-0.0354004	-0.0701904	-0.105591
-0.0366211	-0.067749	-0.10437
-0.0366211	-0.065918	-0.102539
-0.0360107	-0.0634766	-0.0994873
-0.0360107	-0.0610352	-0.0970459
-0.0363159	-0.0595093	-0.0958252
-0.0369263	-0.0585938	-0.09552
-0.0378418	-0.0582886	-0.0961304
-0.0372314	-0.0592041	-0.0964355
-0.0357056	-0.0613403	-0.0970459
-0.0344849	-0.0628662	-0.0973511
-0.0357056	-0.062561	-0.0982666
-0.0378418	-0.0616455	-0.0994873
-0.0384521	-0.0616455	-0.100098
-0.0378418	-0.062561	-0.100403
-0.0369263	-0.0628662	-0.0997925
-0.0363159	-0.0628662	-0.0991821
-0.0357056	-0.062561	-0.0982666
-0.0350952	-0.0622559	-0.0973511
-0.0338745	-0.0622559	-0.0961304
-0.0323486	-0.0622559	-0.0946045
-0.0314331	-0.0613403	-0.0927734
-0.0311279	-0.0604248	-0.0915527
-0.0311279	-0.0601196	-0.0912476
-0.0317383	-0.0598145	-0.0915527
-0.0326538	-0.0595093	-0.0921631
-0.0335693	-0.0588989	-0.0924683
-0.0344849	-0.0585938	-0.0930786
-0.0360107	-0.0579834	-0.0939941
-0.0372314	-0.0582886	-0.09552
-0.0378418	-0.0598145	-0.0976563
-0.038147	-0.0616455	-0.0997925
-0.0396729	-0.0622559	-0.101929
-0.0421143	-0.0610352	-0.103149
-0.0448608	-0.0588989	-0.10376
-0.0476074	-0.0567627	-0.10437
-0.050354	-0.0540161	-0.10437
-0.0521851	-0.0518799	-0.104065
-0.0521851	-0.050354	-0.102539
-0.0506592	-0.0497437	-0.100403
-0.0482178	-0.050354	-0.0985718
-0.0445557	-0.0518799	-0.0964355
-0.0405884	-0.0537109	-0.0942993
-0.0357056	-0.0561523	-0.0918579
-0.0292969	-0.0601196	-0.0894165
-0.022583	-0.0650024	-0.0875854
-0.0180054	-0.0686646	-0.0866699
-0.0158691	-0.071106	-0.0869751
-0.0152588	-0.0723267	-0.0875854
-0.0167847	-0.0720215	-0.0888062
-0.0204468	-0.0708008	-0.0912476
-0.0256348	-0.0683594	-0.0939941
-0.0302124	-0.0662231	-0.0964355
-0.0335693	-0.0643921	-0.0979614
-0.0360107	-0.0631714	-0.0991821
-0.0378418	-0.0616455	-0.0994873
-0.0402832	-0.0601196	-0.100403
-0.0421143	-0.0585938	-0.100708
-0.0427246	-0.0570679	-0.0997925
-0.0411987	-0.0576782	-0.098877
-0.0387573	-0.0595093	-0.0982666
-0.0366211	-0.0619507	-0.0985718
-0.0350952	-0.0634766	-0.0985718
-0.03479	-0.0646973	-0.0994873
-0.0363159	-0.0656128	-0.101929
-0.0384521	-0.0656128	-0.104065
-0.0411987	-0.0640869	-0.105286
-0.0457764	-0.0610352	-0.106812
-0.0512695	-0.0570679	-0.108337
-0.055542	-0.0540161	-0.109558
-0.0582886	-0.0531006	-0.111389
-0.0592041	-0.0534058	-0.11261
-0.0582886	-0.0549316	-0.11322
-0.0552368	-0.0567627	-0.112
-0.0497437	-0.0588989	-0.108643
-0.0421143	-0.0613403	-0.103455
-0.0338745	-0.0628662	-0.0967407
-0.0259399	-0.0628662	-0.0888062
-0.0186157	-0.0604248	-0.0790405
-0.0125122	-0.0552368	-0.067749
-0.00976563	-0.0463867	-0.0561523
-0.010376	-0.03479	-0.045166
-0.0128174	-0.022583	-0.0354004
-0.0164795	-0.0112915	-0.027771
-0.0204468	-0.000305176	-0.020752
-0.0244141	0.00976563	-0.0146484
-0.0283813	0.0192261	-0.00915527
-0.0320435	0.0271606	-0.00488281
-0.0357056	0.0354004	-0.000305176
-0.0387573	0.0448608	0.00610352
-0.0402832	0.0558472	0.015564
-0.0411987	0.0680542	0.0268555
-0.0415039	0.0805664	0.0390625
-0.0421143	0.0933838	0.0512695
-0.0436401	0.106201	0.062561
-0.0445557	0.118408	0.0738525
-0.0430298	0.127869	0.0848389
-0.0393677	0.132141	0.0927734
-0.0344849	0.131531	0.0970459
-0.0299072	0.127258	0.0973511
-0.0262451	0.120239	0.0939941
-0.0238037	0.112	0.0881958
-0.0228882	0.101929	0.0790405
-0.0234985	0.0900269	0.0665283
-0.0253296	0.0772095	0.0518799
-0.0283813	0.0640869	0.0357056
-0.0323486	0.0512695	0.0189209
-0.0366211	0.0384521	0.00183105
-0.0405884	0.0244141	-0.0161743
-0.0442505	0.0088501	-0.0354004
-0.0473022	-0.00701904	-0.0543213
-0.0497437	-0.0231934	-0.072937
-0.0509644	-0.0396729	-0.0906372
-0.0509644	-0.0561523	-0.107117
-0.0491333	-0.0717163	-0.12085
-0.0457764	-0.0863647	-0.132141
-0.0424194	-0.0985718	-0.140991
-0.0393677	-0.108337	-0.147705
-0.0363159	-0.115662	-0.151978
-0.0332642	-0.120239	-0.153503
-0.0305176	-0.122986	-0.153503
-0.0283813	-0.123901	-0.152283
-0.027771	-0.123291	-0.151062
-0.0280762	-0.121155	-0.149231
-0.0286865	-0.119019	-0.147705
-0.0292969	-0.117798	-0.147095
-0.0311279	-0.119324	-0.150452
-0.0326538	-0.124207	-0.15686
-0.0323486	-0.133362	-0.16571
-0.0296021	-0.145874	-0.175476
-0.0244141	-0.159912	-0.184326
-0.0180054	-0.173035	-0.19104
-0.0109863	-0.181274	-0.192261
-0.00457764	-0.181885	-0.186462
0.00183105	-0.172729	-0.170898
0.00915527	-0.152893	-0.143738
0.0177002	-0.119934	-0.102234
0.0265503	-0.0723267	-0.0457764
0.0335693	-0.00854492	0.0250244
0.0378418	0.0720215	0.109863
0.0408936	0.167847	0.20874
0.0445557	0.274963	0.319519
0.0500488	0.385437	0.435486
0.0598145	0.489197	0.549011
0.0738525	0.580444	0.654297
0.0900269	0.657043	0.74707
0.105591	0.716248	0.821838
0.119324	0.751038	0.870361
0.13031	0.75531	0.88562
0.135803	0.727539	0.863342
0.134277	0.670776	0.805054
0.124207	0.59021	0.714417
0.10498	0.491638	0.596619
0.0787354	0.38208	0.460815
0.0491333	0.269165	0.318298
0.0180054	0.158997	0.177002
-0.012207	0.0576782	0.0454712
-0.0396729	-0.0292969	-0.0689697
-0.0610352	-0.0976563	-0.158691
-0.0738525	-0.146484	-0.220337
-0.0769043	-0.177002	-0.253906
-0.0704956	-0.192261	-0.262756
-0.0576782	-0.195618	-0.253296
-0.0424194	-0.190735	-0.233154
-0.0274658	-0.180054	-0.20752
-0.0149536	-0.166931	-0.181885
-0.00610352	-0.153809	-0.159912
-0.00152588	-0.142822	-0.144348
-0.000305176	-0.134583	-0.134888
-0.00213623	-0.129089	-0.131226
-0.00549316	-0.126648	-0.132141
-0.00946045	-0.126648	-0.136108
-0.0140381	-0.128479	-0.142517
-0.0186157	-0.131531	-0.150146
-0.0222778	-0.135498	-0.157776
-0.0244141	-0.140076	-0.16449
-0.0247192	-0.143738	-0.168457
-0.0238037	-0.145874	-0.169678
-0.0216675	-0.147095	-0.168762
-0.0198364	-0.14679	-0.166626
-0.0198364	-0.144958	-0.164795
-0.0204468	-0.142212	-0.162659
-0.0210571	-0.13855	-0.159607
-0.0201416	-0.135803	-0.155945
-0.017395	-0.134277	-0.151672
-0.0149536	-0.133057	-0.14801
-0.0131226	-0.132141	-0.145264
-0.012207	-0.13092	-0.143127
-0.0109863	-0.130615	-0.141602
-0.00915527	-0.131226	-0.140381
-0.00610352	-0.133057	-0.13916
-0.00183105	-0.135803	-0.137634
0.00305176	-0.138855	-0.135803
0.00671387	-0.140381	-0.133667
0.0088501	-0.140381	-0.131531
0.0100708	-0.138855	-0.128784
0.0112915	-0.137024	-0.125732
0.012207	-0.135193	-0.122986
0.0109863	-0.133057	-0.12207
0.00823975	-0.13092	-0.122681
0.00518799	-0.1297	-0.124512
0.00274658	-0.1297	-0.126953
0	-0.1297	-0.1297
-0.00366211	-0.128479	-0.132141
-0.00823975	-0.126648	-0.134888
-0.0112915	-0.124817	-0.136108
-0.0128174	-0.123291	-0.136108
-0.0146484	-0.121155	-0.135803
-0.015564	-0.118408	-0.133972
-0.0140381	-0.117188	-0.131226
-0.0106812	-0.117188	-0.127869
-0.00671387	-0.118103	-0.124817
-0.00305176	-0.119324	-0.122375
0.0012207	-0.12146	-0.120239
0.00640869	-0.124207	-0.117798
0.012207	-0.127869	-0.115662
0.0177002	-0.131836	-0.114136
0.0219727	-0.135193	-0.11322
0.0241089	-0.137024	-0.112915
0.0244141	-0.137634	-0.11322
0.0238037	-0.137024	-0.11322
0.0213623	-0.133667	-0.112305
0.0186157	-0.128174	-0.109558
0.0164795	-0.12146	-0.10498
0.0137329	-0.114441	-0.100708
0.0109863	-0.108643	-0.0976563
0.00946045	-0.104675	-0.0952148
0.0106812	-0.103149	-0.0924683
0.0137329	-0.10376	-0.0900269
0.0170898	-0.10498	-0.0878906
0.0210571	-0.107117	-0.0860596
0.0253296	-0.110168	-0.0848389
0.0305176	-0.115356	-0.0848389
0.0360107	-0.121155	-0.085144
0.0405884	-0.126343	-0.0857544
0.043335	-0.130005	-0.0866699
0.0442505	-0.131836	-0.0875854
0.0442505	-0.132141	-0.0878906
0.043335	-0.131226	-0.0878906
0.043335	-0.130005	-0.0866699
0.0439453	-0.128784	-0.0848389
0.0442505	-0.126343	-0.0820923
0.043335	-0.12207	-0.0787354
0.0421143	-0.117493	-0.0753784
0.0415039	-0.112915	-0.0714111
0.0418091	-0.108948	-0.0671387
0.0445557	-0.106506	-0.0619507
0.0491333	-0.105591	-0.0564575
0.0524902	-0.106201	-0.0537109
0.0543213	-0.107727	-0.0534058
0.0543213	-0.108948	-0.0546265
0.0537109	-0.110474	-0.0567627
0.0534058	-0.11322	-0.0598145
0.0543213	-0.117188	-0.0628662
0.0561523	-0.123291	-0.0671387
0.0598145	-0.130615	-0.0708008
0.0650024	-0.137634	-0.0726318
0.0698853	-0.142517	-0.0726318
0.0732422	-0.144653	-0.0714111
0.0759888	-0.145569	-0.0695801
0.0808716	-0.146484	-0.0656128
0.0866699	-0.14801	-0.0613403
0.0921631	-0.149231	-0.0570679
0.0958252	-0.149536	-0.0537109
0.0976563	-0.148621	-0.0509644
0.0976563	-0.146484	-0.0488281
0.0961304	-0.143738	-0.0476074
0.0933838	-0.140686	-0.0473022
0.0906372	-0.137329	-0.0466919
0.0878906	-0.133972	-0.0460815
0.0860596	-0.13031	-0.0442505
0.0839233	-0.126038	-0.0421143
0.0805664	-0.121155	-0.0405884
0.0759888	-0.115662	-0.0396729
0.0704956	-0.109863	-0.0393677
0.0640869	-0.10376	-0.0396729
0.0570679	-0.0967407	-0.0396729
0.0491333	-0.0894165	-0.0402832
0.0402832	-0.0827026	-0.0424194
0.0317383	-0.0769043	-0.045166
0.0244141	-0.0732422	-0.0488281
0.0177002	-0.0704956	-0.0527954
0.0109863	-0.0671387	-0.0561523
0.00396729	-0.0637817	-0.0598145
-0.00335693	-0.0610352	-0.0643921
-0.00915527	-0.0588989	-0.0680542
-0.0143433	-0.0579834	-0.0723267
-0.0198364	-0.0567627	-0.0765991
-0.0244141	-0.055542	-0.0799561
-0.027771	-0.0537109	-0.0814819
-0.0308228	-0.0515747	-0.0823975
-0.0332642	-0.0506592	-0.0839233
-0.03479	-0.0515747	-0.0863647
-0.0360107	-0.0531006	-0.0891113
-0.0366211	-0.0552368	-0.0918579
-0.0378418	-0.0564575	-0.0942993
-0.0390625	-0.057373	-0.0964355
-0.039978	-0.0579834	-0.0979614
-0.0421143	-0.0579834	-0.100098
-0.0454712	-0.057373	-0.102844
-0.0491333	-0.0561523	-0.105286
-0.0527954	-0.0540161	-0.106812
-0.0546265	-0.0524902	-0.107117
-0.0549316	-0.0527954	-0.107727
-0.0540161	-0.0540161	-0.108032
-0.0518799	-0.0567627	-0.108643
-0.0488281	-0.0613403	-0.110168
-0.0457764	-0.0671387	-0.112915
-0.0424194	-0.072937	-0.115356
-0.0375366	-0.0793457	-0.116882
-0.0320435	-0.0854492	-0.117493
-0.0283813	-0.0897217	-0.118103
-0.0259399	-0.0915527	-0.117493
-0.0256348	-0.0912476	-0.116882
-0.0262451	-0.0888062	-0.115051
-0.027771	-0.0848389	-0.11261
-0.0308228	-0.0793457	-0.110168
-0.0344849	-0.0732422	-0.107727
-0.0378418	-0.067749	-0.105591
-0.039978	-0.0634766	-0.103455
-0.0421143	-0.0604248	-0.102539
-0.0439453	-0.0579834	-0.101929
-0.0445557	-0.0570679	-0.101624
-0.0439453	-0.0567627	-0.100708
-0.0427246	-0.0567627	-0.0994873
-0.0411987	-0.0558472	-0.0970459
-0.039978	-0.0540161	-0.0939941
-0.0393677	-0.050354	-0.0897217
-0.0408936	-0.045166	-0.0860596
-0.0436401	-0.039978	-0.0836182
-0.0457764	-0.0366211	-0.0823975
-0.0463867	-0.0350952	-0.0814819
-0.0457764	-0.0344849	-0.0802612
-0.0448608	-0.03479	-0.0796509
-0.0442505	-0.0360107	-0.0802612
-0.043335	-0.0384521	-0.0817871
-0.0418091	-0.0424194	-0.0842285
-0.0387573	-0.0469971	-0.0857544
-0.0350952	-0.0521851	-0.0872803
-0.0326538	-0.0564575	-0.0891113
-0.0308228	-0.0588989	-0.0897217
-0.0289917	-0.0604248	-0.0894165
-0.0283813	-0.0601196	-0.088501
-0.0299072	-0.057373	-0.0872803
-0.0326538	-0.0540161	-0.0866699
-0.0357056	-0.0506592	-0.0863647
-0.0369263	-0.0488281	-0.0857544
-0.0363159	-0.0485229	-0.0848389
-0.0350952	-0.0494385	-0.0845337
-0.0332642	-0.0512695	-0.0845337
-0.0311279	-0.0527954	-0.0839233
-0.0292969	-0.0546265	-0.0839233
-0.0274658	-0.0567627	-0.0842285
-0.0259399	-0.0585938	-0.0845337
-0.0244141	-0.0601196	-0.0845337
-0.0231934	-0.0610352	-0.0842285
-0.0228882	-0.06073	-0.0836182
-0.0231934	-0.0588989	-0.0820923
-0.0247192	-0.0561523	-0.0808716
-0.0268555	-0.0534058	-0.0802612
-0.0283813	-0.0509644	-0.0793457
-0.0289917	-0.0491333	-0.078125
-0.0283813	-0.0488281	-0.0772095
-0.0271606	-0.0491333	-0.0762939
-0.0256348	-0.0497437	-0.0753784
-0.0234985	-0.0506592	-0.0741577
-0.0213623	-0.0518799	-0.0732422
-0.0186157	-0.0534058	-0.0720215
-0.0161743	-0.055542	-0.0717163
-0.0152588	-0.0576782	-0.072937
-0.015564	-0.0585938	-0.0741577
-0.0180054	-0.0579834	-0.0759888
-0.0219727	-0.0564575	-0.0784302
-0.0259399	-0.0546265	-0.0805664
-0.0286865	-0.0537109	-0.0823975
-0.0302124	-0.0543213	-0.0845337
-0.0311279	-0.0558472	-0.0869751
-0.0314331	-0.0570679	-0.088501
-0.0308228	-0.0579834	-0.0888062
-0.0296021	-0.0576782	-0.0872803
-0.0289917	-0.0558472	-0.0848389
-0.0292969	-0.0534058	-0.0827026
-0.0311279	-0.0506592	-0.0817871
-0.0335693	-0.0485229	-0.0820923
-0.0350952	-0.0476074	-0.0827026
-0.0360107	-0.0469971	-0.0830078
-0.0366211	-0.0466919	-0.083313
-0.0360107	-0.0473022	-0.083313
-0.0344849	-0.0488281	-0.083313
-0.0323486	-0.0506592	-0.0830078
-0.0289917	-0.0531006	-0.0820923
-0.0234985	-0.0564575	-0.0799561
-0.0180054	-0.0595093	-0.0775146
-0.0131226	-0.0622559	-0.0753784
-0.00946045	-0.0646973	-0.0741577
-0.00793457	-0.065918	-0.0738525
-0.00976563	-0.0643921	-0.0741577
-0.0140381	-0.0613403	-0.0753784
-0.0189209	-0.0576782	-0.0765991
-0.0244141	-0.0531006	-0.0775146
-0.0292969	-0.0473022	-0.0765991
-0.0332642	-0.0408936	-0.0741577
-0.0354004	-0.0344849	-0.0698853
-0.0354004	-0.0271606	-0.062561
-0.0338745	-0.0195313	-0.0534058
-0.0305176	-0.0109863	-0.0415039
-0.0268555	-0.00274658	-0.0296021
-0.0228882	0.00427246	-0.0186157
-0.0189209	0.00946045	-0.00946045
-0.015564	0.0140381	-0.00152588
-0.0140381	0.0180054	0.00396729
-0.0137329	0.0219727	0.00823975
-0.0140381	0.0256348	0.0115967
-0.0146484	0.0302124	0.015564
-0.0152588	0.0372314	0.0219727
-0.0152588	0.0460815	0.0308228
-0.0149536	0.0561523	0.0411987
-0.0140381	0.0674438	0.0534058
-0.0131226	0.0796509	0.0665283
-0.012207	0.0927734	0.0805664
-0.0119019	0.106812	0.0949097
-0.0115967	0.120239	0.108643
-0.0115967	0.130615	0.119019
-0.012207	0.137024	0.124817
-0.0149536	0.140381	0.125427
-0.0198364	0.140686	0.12085
-0.0250244	0.137634	0.11261
-0.0292969	0.13092	0.101624
-0.032959	0.120544	0.0875854
-0.03479	0.106812	0.0720215
-0.0354004	0.0897217	0.0543213
-0.0357056	0.0704956	0.03479
-0.0350952	0.0500488	0.0149536
-0.0341797	0.0299072	-0.00427246
-0.0332642	0.010376	-0.0228882
-0.0311279	-0.0088501	-0.039978
-0.0274658	-0.0274658	-0.0549316
-0.0234985	-0.045166	-0.0686646
-0.0213623	-0.0601196	-0.0814819
-0.0219727	-0.0717163	-0.093689
-0.0253296	-0.0796509	-0.10498
-0.0292969	-0.085144	-0.114441
-0.0317383	-0.0894165	-0.121155
-0.0332642	-0.0933838	-0.126648
-0.0338745	-0.0967407	-0.130615
-0.0344849	-0.0982666	-0.132751
-0.0360107	-0.098877	-0.134888
-0.038147	-0.0991821	-0.137329
-0.0393677	-0.100098	-0.139465
-0.0390625	-0.102234	-0.141296
-0.0366211	-0.106812	-0.143433
-0.0338745	-0.11261	-0.146484
-0.0308228	-0.120544	-0.151367
-0.0262451	-0.131836	-0.158081
-0.0204468	-0.145874	-0.166321
-0.0137329	-0.161133	-0.174866
-0.00610352	-0.174561	-0.180664
0.00183105	-0.182495	-0.180664
0.00823975	-0.1828	-0.174561
0.0137329	-0.172729	-0.158997
0.0198364	-0.151367	-0.131531
0.0268555	-0.116882	-0.0900269
0.032959	-0.067749	-0.03479
0.0372314	-0.00366211	0.0335693
0.0396729	0.0732422	0.112915
0.0405884	0.161438	0.202026
0.0402832	0.258789	0.299072
0.0415039	0.360718	0.402222
0.0460815	0.460205	0.506287
0.0561523	0.549622	0.605774
0.0686646	0.623779	0.692444
0.0814819	0.681152	0.762634
0.0927734	0.719299	0.812073
0.101929	0.734558	0.836487
0.108032	0.722046	0.830078
0.108948	0.681152	0.7901
0.103455	0.61615	0.719604
0.0894165	0.532837	0.622253
0.0683594	0.435486	0.503845
0.0427246	0.329895	0.37262
0.015564	0.223389	0.238953
-0.0112915	0.121765	0.110474
-0.0360107	0.0302124	-0.00579834
-0.055542	-0.0473022	-0.102844
-0.0674438	-0.108032	-0.175476
-0.0708008	-0.151672	-0.222473
-0.0662231	-0.178528	-0.244751
-0.0561523	-0.191956	-0.248108
-0.0421143	-0.194702	-0.236816
-0.0265503	-0.190125	-0.216675
-0.012207	-0.181885	-0.194092
-0.000915527	-0.172119	-0.173035
0.00610352	-0.162964	-0.15686
0.00946045	-0.155029	-0.145569
0.00946045	-0.149536	-0.140076
0.00671387	-0.145874	-0.13916
0.00274658	-0.143738	-0.140991
-0.00244141	-0.142822	-0.145264
-0.00793457	-0.142212	-0.150146
-0.012207	-0.142517	-0.154724
-0.0146484	-0.143433	-0.158081
-0.015564	-0.145874	-0.161438
-0.0149536	-0.148315	-0.163269
-0.0140381	-0.149841	-0.163879
-0.0131226	-0.150757	-0.163879
-0.0119019	-0.151367	-0.163269
-0.0106812	-0.151978	-0.162659
-0.00915527	-0.152283	-0.161438
-0.00701904	-0.152893	-0.159912
-0.00457764	-0.153198	-0.157776
-0.00152588	-0.153198	-0.154724
0.00183105	-0.152588	-0.150757
0.00579834	-0.151978	-0.146179
0.00976563	-0.151978	-0.142212
0.0125122	-0.152588	-0.140076
0.0140381	-0.153198	-0.13916
0.0149536	-0.154114	-0.13916
0.0149536	-0.154724	-0.139771
0.0143433	-0.155334	-0.140991
0.0131226	-0.155945	-0.142822
0.010376	-0.15564	-0.145264
0.00549316	-0.153503	-0.14801
-0.000305176	-0.149841	-0.150146
-0.00549316	-0.145264	-0.150757
-0.00793457	-0.140686	-0.148621
-0.0088501	-0.136719	-0.145569
-0.00854492	-0.133362	-0.141907
-0.00732422	-0.130005	-0.137329
-0.00610352	-0.126953	-0.133057
-0.00366211	-0.124512	-0.128174
0	-0.123596	-0.123596
0.00396729	-0.124512	-0.120544
0.00640869	-0.125427	-0.119019
0.00854492	-0.125732	-0.117188
0.0106812	-0.126648	-0.115967
0.0137329	-0.128479	-0.114746
0.017395	-0.130615	-0.11322
0.020752	-0.133362	-0.11261
0.0234985	-0.135803	-0.112305
0.0268555	-0.138245	-0.111389
0.0308228	-0.140076	-0.109253
0.0332642	-0.140381	-0.107117
0.0332642	-0.13855	-0.105286
0.0317383	-0.135803	-0.104065
0.0296021	-0.132446	-0.102844
0.0262451	-0.127869	-0.101624
0.0222778	-0.122375	-0.100098
0.0189209	-0.116272	-0.0973511
0.0158691	-0.110779	-0.0949097
0.0128174	-0.106201	-0.0933838
0.00915527	-0.102539	-0.0933838
0.00671387	-0.100403	-0.093689
0.00640869	-0.100708	-0.0942993
0.00823975	-0.103149	-0.0949097
0.00976563	-0.105896	-0.0961304
0.010376	-0.108337	-0.0979614
0.0109863	-0.110779	-0.0997925
0.0119019	-0.112915	-0.101013
0.0143433	-0.115662	-0.101318
0.0183105	-0.119019	-0.100708
0.0244141	-0.122375	-0.0979614
0.0311279	-0.125732	-0.0946045
0.038147	-0.129395	-0.0912476
0.045166	-0.132751	-0.0875854
0.0518799	-0.136108	-0.0842285
0.0576782	-0.138245	-0.0805664
0.0613403	-0.139465	-0.078125
0.0640869	-0.139771	-0.0756836
0.0650024	-0.139465	-0.0744629
0.0646973	-0.13916	-0.0744629
0.0634766	-0.138855	-0.0753784
0.0619507	-0.13916	-0.0772095
0.06073	-0.13916	-0.0784302
0.06073	-0.139465	-0.0787354
0.0616455	-0.140991	-0.0793457
0.062561	-0.142517	-0.0799561
0.0634766	-0.144653	-0.0811768
0.065918	-0.14801	-0.0820923
0.0692749	-0.151672	-0.0823975
0.0732422	-0.155029	-0.0817871
0.0775146	-0.157166	-0.0796509
0.0811768	-0.158386	-0.0772095
0.083313	-0.158081	-0.0747681
0.0848389	-0.157166	-0.0723267
0.0869751	-0.156555	-0.0695801
0.0894165	-0.156555	-0.0671387
0.0918579	-0.15686	-0.0650024
0.0930786	-0.156555	-0.0634766
0.0924683	-0.155029	-0.062561
0.0918579	-0.153198	-0.0613403
0.0909424	-0.151367	-0.0604248
0.0894165	-0.148926	-0.0595093
0.0869751	-0.146484	-0.0595093
0.0842285	-0.143433	-0.0592041
0.0808716	-0.139771	-0.0588989
0.0772095	-0.134888	-0.0576782
0.0738525	-0.130615	-0.0567627
0.0714111	-0.126038	-0.0546265
0.067749	-0.12085	-0.0531006
0.0631714	-0.114746	-0.0515747
0.0579834	-0.108643	-0.0506592
0.0512695	-0.102844	-0.0515747
0.0442505	-0.0970459	-0.0527954
0.038147	-0.0924683	-0.0543213
0.0323486	-0.0881958	-0.0558472
0.0259399	-0.0839233	-0.0579834
0.0210571	-0.0805664	-0.0595093
0.0164795	-0.0778198	-0.0613403
0.0134277	-0.0765991	-0.0631714
0.012207	-0.0769043	-0.0646973
0.0119019	-0.0772095	-0.0653076
0.00946045	-0.0769043	-0.0674438
0.00579834	-0.0765991	-0.0708008
0.00213623	-0.0762939	-0.0741577
-0.0012207	-0.0762939	-0.0775146
-0.00488281	-0.0756836	-0.0805664
-0.0100708	-0.0741577	-0.0842285
-0.0164795	-0.0726318	-0.0891113
-0.0234985	-0.0704956	-0.0939941
-0.0302124	-0.0686646	-0.098877
-0.0360107	-0.0674438	-0.103455
-0.0408936	-0.065918	-0.106812
-0.0445557	-0.0650024	-0.109558
-0.0463867	-0.0646973	-0.111084
-0.0466919	-0.065918	-0.11261
-0.0457764	-0.0686646	-0.114441
-0.0454712	-0.0701904	-0.115662
-0.0460815	-0.071106	-0.117188
-0.0466919	-0.071106	-0.117798
-0.0476074	-0.0704956	-0.118103
-0.0485229	-0.0686646	-0.117188
-0.0491333	-0.0662231	-0.115356
-0.0497437	-0.0628662	-0.11261
-0.0506592	-0.0595093	-0.110168
-0.0509644	-0.057373	-0.108337
-0.050354	-0.0561523	-0.106506
-0.0488281	-0.0558472	-0.104675
-0.0469971	-0.055542	-0.102539
-0.0454712	-0.055542	-0.101013
-0.0448608	-0.0558472	-0.100708
-0.0442505	-0.057373	-0.101624
-0.043335	-0.0601196	-0.103455
-0.0430298	-0.0622559	-0.105286
-0.043335	-0.0634766	-0.106812
-0.0439453	-0.0640869	-0.108032
-0.0439453	-0.0643921	-0.108337
-0.043335	-0.0643921	-0.107727
-0.0402832	-0.0653076	-0.105591
-0.0360107	-0.0668335	-0.102844
-0.0320435	-0.0686646	-0.100708
-0.0292969	-0.0698853	-0.0991821
-0.0274658	-0.0701904	-0.0976563
-0.0259399	-0.0701904	-0.0961304
-0.0253296	-0.0698853	-0.0952148
-0.0256348	-0.0698853	-0.09552
-0.0280762	-0.0686646	-0.0967407
-0.0311279	-0.0668335	-0.0979614
-0.0344849	-0.0650024	-0.0994873
-0.038147	-0.0640869	-0.102234
-0.0405884	-0.0637817	-0.10437
-0.0402832	-0.0643921	-0.104675
-0.0378418	-0.065918	-0.10376
-0.0350952	-0.0674438	-0.102539
-0.0317383	-0.0695801	-0.101318
-0.0268555	-0.0723267	-0.0991821
-0.022583	-0.0747681	-0.0973511
-0.0204468	-0.0753784	-0.0958252
-0.0204468	-0.0738525	-0.0942993
-0.0219727	-0.0708008	-0.0927734
-0.0231934	-0.0674438	-0.0906372
-0.0256348	-0.0634766	-0.0891113
-0.0299072	-0.0588989	-0.0888062
-0.0357056	-0.0537109	-0.0894165
-0.0415039	-0.0491333	-0.0906372
-0.0457764	-0.0463867	-0.0921631
-0.0476074	-0.0457764	-0.0933838
-0.0479126	-0.0469971	-0.0949097
-0.0466919	-0.0491333	-0.0958252
-0.043335	-0.0521851	-0.09552
-0.0390625	-0.055542	-0.0946045
-0.0344849	-0.0592041	-0.093689
-0.0305176	-0.0616455	-0.0921631
-0.0280762	-0.062561	-0.0906372
-0.0268555	-0.0616455	-0.088501
-0.0271606	-0.0588989	-0.0860596
-0.0283813	-0.0552368	-0.0836182
-0.0317383	-0.0500488	-0.0817871
-0.0363159	-0.0445557	-0.0808716
-0.0408936	-0.0393677	-0.0802612
-0.0448608	-0.0354004	-0.0802612
-0.0473022	-0.032959	-0.0802612
-0.0466919	-0.0335693	-0.0802612
-0.0439453	-0.0366211	-0.0805664
-0.0396729	-0.0408936	-0.0805664
-0.0338745	-0.0457764	-0.0796509
-0.0280762	-0.0512695	-0.0793457
-0.022583	-0.0564575	-0.0790405
-0.0180054	-0.06073	-0.0787354
-0.0152588	-0.0640869	-0.0793457
-0.0140381	-0.065918	-0.0799561
-0.0143433	-0.0662231	-0.0805664
-0.0149536	-0.0662231	-0.0811768
-0.015564	-0.0656128	-0.0811768
-0.0161743	-0.0640869	-0.0802612
-0.0180054	-0.0610352	-0.0790405
-0.0204468	-0.0579834	-0.0784302
-0.022583	-0.055542	-0.078125
-0.0234985	-0.0543213	-0.0778198
-0.0238037	-0.0540161	-0.0778198
-0.0231934	-0.0543213	-0.0775146
-0.0234985	-0.0543213	-0.0778198
-0.0256348	-0.0540161	-0.0796509
-0.0274658	-0.0537109	-0.0811768
-0.0280762	-0.0546265	-0.0827026
-0.027771	-0.0561523	-0.0839233
-0.0280762	-0.0579834	-0.0860596
-0.0296021	-0.0592041	-0.0888062
-0.0311279	-0.0595093	-0.0906372
-0.0311279	-0.0598145	-0.0909424
-0.0311279	-0.0598145	-0.0909424
-0.0317383	-0.0595093	-0.0912476
-0.0320435	-0.0592041	-0.0912476
-0.0314331	-0.0595093	-0.0909424
-0.0305176	-0.0588989	-0.0894165
-0.0308228	-0.0576782	-0.088501
-0.0317383	-0.0564575	-0.0881958
-0.032959	-0.0561523	-0.0891113
-0.0344849	-0.0564575	-0.0909424
-0.0360107	-0.0564575	-0.0924683
-0.0375366	-0.0561523	-0.093689
-0.039978	-0.0549316	-0.0949097
-0.0442505	-0.0527954	-0.0970459
-0.0500488	-0.0485229	-0.0985718
-0.0567627	-0.0424194	-0.0991821
-0.0619507	-0.0350952	-0.0970459
-0.0640869	-0.0274658	-0.0915527
-0.0650024	-0.0189209	-0.0839233
-0.0640869	-0.010376	-0.0744629
-0.0604248	-0.00244141	-0.0628662
-0.0546265	0.00488281	-0.0497437
-0.0463867	0.010376	-0.0360107
-0.0360107	0.0137329	-0.0222778
-0.0250244	0.0143433	-0.0106812
-0.0143433	0.0134277	-0.000915527
-0.00518799	0.0131226	0.00793457
0.00183105	0.0146484	0.0164795
0.00610352	0.0180054	0.0241089
0.00701904	0.0247192	0.0317383
0.00427246	0.0350952	0.0393677
-0.000305176	0.0494385	0.0491333
-0.00549316	0.0668335	0.0613403
-0.0112915	0.085144	0.0738525
-0.0192261	0.103455	0.0842285
-0.0280762	0.121155	0.0930786
-0.0360107	0.137329	0.101318
-0.0421143	0.150452	0.108337
-0.045166	0.157776	0.11261
-0.045166	0.158386	0.11322
-0.0442505	0.154419	0.110168
-0.0436401	0.147095	0.103455
-0.043335	0.137634	0.0942993
-0.0430298	0.126038	0.0830078
-0.0424194	0.112305	0.0698853
-0.0408936	0.0970459	0.0561523
-0.0393677	0.0805664	0.0411987
-0.0390625	0.0640869	0.0250244
-0.0405884	0.0485229	0.00793457
-0.0430298	0.0332642	-0.00976563
-0.0457764	0.0180054	-0.027771
-0.0485229	0.00244141	-0.0460815
-0.0500488	-0.0128174	-0.0628662
-0.0509644	-0.027771	-0.0787354
-0.0515747	-0.0421143	-0.093689
-0.0521851	-0.0546265	-0.106812
-0.0534058	-0.0640869	-0.117493
-0.055542	-0.071106	-0.126648
-0.0567627	-0.0765991	-0.133362
-0.0570679	-0.0808716	-0.137939
-0.057373	-0.0839233	-0.141296
-0.0558472	-0.0872803	-0.143127
-0.0524902	-0.0915527	-0.144043
-0.0491333	-0.0946045	-0.143738
-0.0463867	-0.0973511	-0.143738
-0.0436401	-0.101013	-0.144653
-0.0393677	-0.107117	-0.146484
-0.0332642	-0.116577	-0.149841
-0.0259399	-0.128784	-0.154724
-0.0183105	-0.144043	-0.162354
-0.0119019	-0.160522	-0.172424
-0.00701904	-0.177002	-0.184021
-0.00335693	-0.19043	-0.193787
-0.000305176	-0.198669	-0.198975
0.00366211	-0.200195	-0.196533
0.00854492	-0.193176	-0.184631
0.0143433	-0.175476	-0.161133
0.0204468	-0.144958	-0.124512
0.0271606	-0.100403	-0.0732422
0.0338745	-0.0402832	-0.00640869
0.0411987	0.0350952	0.0762939
0.0485229	0.125427	0.17395
0.0549316	0.230713	0.285645
0.0613403	0.345459	0.406799
0.0695801	0.4599	0.52948
0.0808716	0.566711	0.647583
0.0939941	0.660706	0.7547
0.107117	0.737	0.844116
0.118713	0.788574	0.907288
0.128479	0.809631	0.93811
0.133362	0.797729	0.931091
0.130005	0.753479	0.883484
0.119324	0.678101	0.797424
0.102539	0.576782	0.679321
0.0793457	0.458374	0.53772
0.0518799	0.332947	0.384827
0.0219727	0.209351	0.231323
-0.0088501	0.09552	0.0866699
-0.038147	-0.00213623	-0.0402832
-0.062561	-0.0799561	-0.142517
-0.0799561	-0.136108	-0.216064
-0.0881958	-0.171204	-0.259399
-0.0878906	-0.188599	-0.276489
-0.0811768	-0.192261	-0.273438
-0.071106	-0.186462	-0.257568
-0.0592041	-0.175781	-0.234985
-0.0482178	-0.16449	-0.212708
-0.0393677	-0.154114	-0.193481
-0.0326538	-0.1474	-0.180054
-0.027771	-0.144653	-0.172424
-0.0247192	-0.145264	-0.169983
-0.0234985	-0.148621	-0.172119
-0.0222778	-0.154419	-0.176697
-0.0204468	-0.161133	-0.18158
-0.0186157	-0.167542	-0.186157
-0.0170898	-0.171814	-0.188904
-0.0158691	-0.174561	-0.19043
-0.0149536	-0.174866	-0.189819
-0.0143433	-0.173645	-0.187988
-0.0137329	-0.171204	-0.184937
-0.0128174	-0.168457	-0.181274
-0.0115967	-0.16571	-0.177307
-0.0115967	-0.162964	-0.174561
-0.0137329	-0.159302	-0.173035
-0.0170898	-0.155334	-0.172424
-0.0201416	-0.152283	-0.172424
-0.0213623	-0.151062	-0.172424
-0.0213623	-0.151062	-0.172424
-0.0216675	-0.151367	-0.173035
-0.0216675	-0.152283	-0.17395
-0.0216675	-0.152893	-0.174561
-0.0222778	-0.153503	-0.175781
-0.022583	-0.153809	-0.176392
-0.0213623	-0.154419	-0.175781
-0.0195313	-0.155029	-0.174561
-0.0167847	-0.155334	-0.172119
-0.0140381	-0.155029	-0.169067
-0.0112915	-0.154114	-0.165405
-0.010376	-0.151672	-0.162048
-0.0112915	-0.148315	-0.159607
-0.0125122	-0.144348	-0.15686
-0.0131226	-0.140686	-0.153809
-0.0134277	-0.137024	-0.150452
-0.0152588	-0.133362	-0.148621
-0.0180054	-0.13031	-0.148315
-0.0210571	-0.128174	-0.149231
-0.0228882	-0.127563	-0.150452
-0.0234985	-0.128174	-0.151672
-0.0228882	-0.1297	-0.152588
-0.0213623	-0.131226	-0.152588
-0.0192261	-0.132446	-0.151672
-0.0167847	-0.134583	-0.151367
-0.0137329	-0.137024	-0.150757
-0.010376	-0.139465	-0.149841
-0.00640869	-0.140686	-0.147095
-0.00244141	-0.141602	-0.144043
0.000915527	-0.142517	-0.141602
0.00427246	-0.143127	-0.138855
0.00732422	-0.142822	-0.135498
0.00946045	-0.141907	-0.132446
0.010376	-0.140686	-0.13031
0.010376	-0.13916	-0.128784
0.0100708	-0.137634	-0.127563
0.00915527	-0.135498	-0.126343
0.00793457	-0.132446	-0.124512
0.00640869	-0.129089	-0.122681
0.00457764	-0.125732	-0.121155
0.00274658	-0.123291	-0.120544
0.00274658	-0.122986	-0.120239
0.00396729	-0.123596	-0.119629
0.00579834	-0.123291	-0.117493
0.00762939	-0.122986	-0.115356
0.010376	-0.122986	-0.11261
0.0143433	-0.123596	-0.109253
0.0183105	-0.124512	-0.106201
0.020752	-0.125427	-0.104675
0.0216675	-0.126038	-0.10437
0.0219727	-0.126038	-0.104065
0.0213623	-0.125122	-0.10376
0.0204468	-0.124512	-0.104065
0.0198364	-0.124817	-0.10498
0.0189209	-0.125122	-0.106201
0.0177002	-0.125122	-0.107422
0.0164795	-0.124817	-0.108337
0.0158691	-0.125427	-0.109558
0.015564	-0.125122	-0.109558
0.0152588	-0.123901	-0.108643
0.0146484	-0.121765	-0.107117
0.0146484	-0.119324	-0.104675
0.0158691	-0.117798	-0.101929
0.0192261	-0.117798	-0.0985718
0.0250244	-0.119629	-0.0946045
0.0317383	-0.122681	-0.0909424
0.0372314	-0.125122	-0.0878906
0.0436401	-0.128174	-0.0845337
0.0512695	-0.133057	-0.0817871
0.0595093	-0.138245	-0.0787354
0.0662231	-0.143127	-0.0769043
0.0708008	-0.146484	-0.0756836
0.0717163	-0.147095	-0.0753784
0.0698853	-0.145874	-0.0759888
0.0680542	-0.144958	-0.0769043
0.0662231	-0.143738	-0.0775146
0.0643921	-0.141907	-0.0775146
0.0634766	-0.140076	-0.0765991
0.0643921	-0.13916	-0.0747681
0.0662231	-0.137939	-0.0717163
0.0680542	-0.136414	-0.0683594
0.0701904	-0.134888	-0.0646973
0.0726318	-0.133667	-0.0610352
0.0747681	-0.132751	-0.0579834
0.0756836	-0.131226	-0.055542
0.0750732	-0.127869	-0.0527954
0.0723267	-0.122681	-0.050354
0.067749	-0.116272	-0.0485229
0.0610352	-0.109253	-0.0482178
0.0537109	-0.102234	-0.0485229
0.045166	-0.0961304	-0.0509644
0.0360107	-0.0906372	-0.0546265
0.0271606	-0.0860596	-0.0588989
0.0186157	-0.0820923	-0.0634766
0.0100708	-0.0778198	-0.067749
0.00152588	-0.0744629	-0.072937
-0.00671387	-0.071106	-0.0778198
-0.0146484	-0.067749	-0.0823975
-0.022583	-0.0643921	-0.0869751
-0.0292969	-0.062561	-0.0918579
-0.03479	-0.0622559	-0.0970459
-0.0384521	-0.0622559	-0.100708
-0.0408936	-0.0622559	-0.103149
-0.0427246	-0.062561	-0.105286
-0.0445557	-0.0637817	-0.108337
-0.0460815	-0.0656128	-0.111694
-0.0485229	-0.067749	-0.116272
-0.0518799	-0.0692749	-0.121155
-0.0546265	-0.0704956	-0.125122
-0.0579834	-0.0704956	-0.128479
-0.0610352	-0.0701904	-0.131226
-0.0640869	-0.0701904	-0.134277
-0.0671387	-0.0704956	-0.137634
-0.0683594	-0.0723267	-0.140686
-0.0674438	-0.0753784	-0.142822
-0.065918	-0.0778198	-0.143738
-0.0646973	-0.0793457	-0.144043
-0.0619507	-0.0808716	-0.142822
-0.0588989	-0.0823975	-0.141296
-0.0564575	-0.0839233	-0.140381
-0.0546265	-0.0845337	-0.13916
-0.0540161	-0.083313	-0.137329
-0.0552368	-0.0796509	-0.134888
-0.0576782	-0.0744629	-0.132141
-0.0601196	-0.0701904	-0.13031
-0.0613403	-0.067749	-0.129089
-0.0619507	-0.0662231	-0.128174
-0.0622559	-0.0656128	-0.127869
-0.0628662	-0.065918	-0.128784
-0.0631714	-0.0674438	-0.130615
-0.062561	-0.0692749	-0.131836
-0.0613403	-0.071106	-0.132446
-0.0598145	-0.0726318	-0.132446
-0.0582886	-0.0738525	-0.132141
-0.0567627	-0.0744629	-0.131226
-0.0558472	-0.0738525	-0.1297
-0.0567627	-0.0720215	-0.128784
-0.0582886	-0.0689697	-0.127258
-0.0588989	-0.0662231	-0.125122
-0.0576782	-0.0643921	-0.12207
-0.0549316	-0.0637817	-0.118713
-0.0506592	-0.0653076	-0.115967
-0.0457764	-0.067749	-0.113525
-0.0421143	-0.0704956	-0.11261
-0.0405884	-0.0735474	-0.114136
-0.039978	-0.0765991	-0.116577
-0.0396729	-0.0796509	-0.119324
-0.0393677	-0.0820923	-0.12146
-0.0402832	-0.0839233	-0.124207
-0.0424194	-0.0839233	-0.126343
-0.0460815	-0.0830078	-0.129089
-0.0506592	-0.0808716	-0.131531
-0.0543213	-0.0778198	-0.132141
-0.055542	-0.0741577	-0.1297
-0.0549316	-0.0704956	-0.125427
-0.0537109	-0.0671387	-0.12085
-0.0531006	-0.0637817	-0.116882
-0.0521851	-0.06073	-0.112915
-0.0515747	-0.057373	-0.108948
-0.0506592	-0.0543213	-0.10498
-0.0494385	-0.0527954	-0.102234
-0.0488281	-0.0518799	-0.100708
-0.0494385	-0.0512695	-0.100708
-0.0491333	-0.0512695	-0.100403
-0.0479126	-0.0524902	-0.100403
-0.0473022	-0.0540161	-0.101318
-0.0473022	-0.055542	-0.102844
-0.0466919	-0.0570679	-0.10376
-0.045166	-0.0592041	-0.10437
-0.0427246	-0.0613403	-0.104065
-0.039978	-0.0631714	-0.103149
-0.0372314	-0.0643921	-0.101624
-0.0341797	-0.0653076	-0.0994873
-0.0317383	-0.0665283	-0.0982666
-0.0299072	-0.067749	-0.0976563
-0.0289917	-0.0680542	-0.0970459
-0.0280762	-0.0680542	-0.0961304
-0.0283813	-0.0674438	-0.0958252
-0.0302124	-0.065918	-0.0961304
-0.0344849	-0.0619507	-0.0964355
-0.0408936	-0.0570679	-0.0979614
-0.0469971	-0.0527954	-0.0997925
-0.0509644	-0.050354	-0.101318
-0.0537109	-0.0482178	-0.101929
-0.0567627	-0.0448608	-0.101624
-0.06073	-0.0411987	-0.101929
-0.0631714	-0.0387573	-0.101929
-0.062561	-0.0390625	-0.101624
-0.0585938	-0.0418091	-0.100403
-0.0531006	-0.0460815	-0.0991821
-0.0476074	-0.0506592	-0.0982666
-0.0439453	-0.0546265	-0.0985718
-0.0418091	-0.057373	-0.0991821
-0.0402832	-0.0598145	-0.100098
-0.0393677	-0.0610352	-0.100403
-0.0390625	-0.0610352	-0.100098
-0.0393677	-0.06073	-0.100098
-0.0387573	-0.06073	-0.0994873
-0.038147	-0.0610352	-0.0991821
-0.0387573	-0.06073	-0.0994873
-0.0405884	-0.0598145	-0.100403
-0.0427246	-0.0588989	-0.101624
-0.045166	-0.0576782	-0.102844
-0.0466919	-0.057373	-0.104065
-0.0469971	-0.0579834	-0.10498
-0.0469971	-0.0585938	-0.105591
-0.0469971	-0.0585938	-0.105591
-0.0469971	-0.0579834	-0.10498
-0.0457764	-0.0570679	-0.102844
-0.0442505	-0.0564575	-0.100708
-0.0430298	-0.0558472	-0.098877
-0.0421143	-0.0552368	-0.0973511
-0.0415039	-0.0546265	-0.0961304
-0.0418091	-0.0537109	-0.09552
-0.0427246	-0.0531006	-0.0958252
-0.0436401	-0.0531006	-0.0967407
-0.0445557	-0.0543213	-0.098877
-0.045166	-0.0558472	-0.101013
-0.0454712	-0.0567627	-0.102234
-0.0457764	-0.055542	-0.101318
-0.0469971	-0.0515747	-0.0985718
-0.0485229	-0.0454712	-0.0939941
-0.0491333	-0.0384521	-0.0875854
-0.0485229	-0.0305176	-0.0790405
-0.0479126	-0.020752	-0.0686646
-0.0491333	-0.00915527	-0.0582886
-0.0515747	0.00335693	-0.0482178
-0.0534058	0.0143433	-0.0390625
-0.0540161	0.0234985	-0.0305176
-0.0546265	0.0314331	-0.0231934
-0.0549316	0.0378418	-0.0170898
-0.0537109	0.0424194	-0.0112915
-0.0506592	0.0454712	-0.00518799
-0.0454712	0.0485229	0.00305176
-0.0393677	0.0534058	0.0140381
-0.0335693	0.0610352	0.0274658
-0.0283813	0.071106	0.0427246
-0.0247192	0.0820923	0.057373
-0.022583	0.0939941	0.0714111
-0.0210571	0.106506	0.0854492
-0.0201416	0.118713	0.0985718
-0.0201416	0.128174	0.108032
-0.0219727	0.134277	0.112305
-0.0256348	0.137024	0.111389
-0.0302124	0.135803	0.105591
-0.0344849	0.1297	0.0952148
-0.038147	0.119629	0.0814819
-0.0418091	0.107727	0.065918
-0.0454712	0.0942993	0.0488281
-0.0491333	0.0793457	0.0302124
-0.0521851	0.0631714	0.0109863
-0.0546265	0.0460815	-0.00854492
-0.0567627	0.0280762	-0.0286865
-0.0576782	0.00976563	-0.0479126
-0.0588989	-0.00823975	-0.0671387
-0.06073	-0.0250244	-0.0857544
-0.0622559	-0.0405884	-0.102844
-0.0628662	-0.0546265	-0.117493
-0.0628662	-0.0674438	-0.13031
-0.0622559	-0.0787354	-0.140991
-0.0616455	-0.0872803	-0.148926
-0.0604248	-0.0933838	-0.153809
-0.0592041	-0.0967407	-0.155945
-0.0585938	-0.098877	-0.157471
-0.0582886	-0.0997925	-0.158081
-0.0576782	-0.100403	-0.158081
-0.0558472	-0.102234	-0.158081
-0.0531006	-0.104675	-0.157776
-0.0500488	-0.108337	-0.158386
-0.0463867	-0.113831	-0.160217
-0.0415039	-0.121765	-0.163269
-0.0360107	-0.131836	-0.167847
-0.0305176	-0.143127	-0.173645
-0.0244141	-0.156555	-0.180969
-0.0180054	-0.171509	-0.189514
-0.0128174	-0.185547	-0.198364
-0.00946045	-0.195007	-0.204468
-0.00762939	-0.197754	-0.205383
-0.00549316	-0.193176	-0.198669
-0.00213623	-0.180054	-0.18219
0.00396729	-0.157471	-0.153503
0.0131226	-0.122681	-0.109558
0.0234985	-0.0732422	-0.0497437
0.0341797	-0.00823975	0.0259399
0.0445557	0.0735474	0.118103
0.0546265	0.172729	0.227356
0.065918	0.284424	0.350342
0.0790405	0.401001	0.480042
0.0933838	0.513916	0.6073
0.107422	0.618286	0.725708
0.119019	0.708618	0.827637
0.128479	0.776367	0.904846
0.135803	0.813904	0.949707
0.139465	0.81665	0.956116
0.136108	0.784607	0.920715
0.124207	0.718689	0.842896
0.105896	0.622864	0.72876
0.0830078	0.504456	0.587463
0.0546265	0.374756	0.429382
0.0219727	0.245667	0.267639
-0.0131226	0.126343	0.11322
-0.0466919	0.0238037	-0.0228882
-0.0756836	-0.057373	-0.133057
-0.0976563	-0.115051	-0.212708
-0.109863	-0.150757	-0.26062
-0.11261	-0.167847	-0.280457
-0.106201	-0.170898	-0.2771
-0.0921631	-0.16571	-0.257874
-0.0732422	-0.157776	-0.231018
-0.0531006	-0.150146	-0.203247
-0.0354004	-0.143738	-0.179138
-0.0216675	-0.140991	-0.162659
-0.0119019	-0.142822	-0.154724
-0.00579834	-0.147705	-0.153503
-0.00366211	-0.154114	-0.157776
-0.00518799	-0.159607	-0.164795
-0.0088501	-0.163269	-0.172119
-0.0143433	-0.164795	-0.179138
-0.020752	-0.163269	-0.184021
-0.0268555	-0.160217	-0.187073
-0.0317383	-0.15686	-0.188599
-0.0354004	-0.153809	-0.189209
-0.0378418	-0.150757	-0.188599
-0.039978	-0.1474	-0.187378
-0.0411987	-0.144958	-0.186157
-0.0408936	-0.144043	-0.184937
-0.0396729	-0.144348	-0.184021
-0.0375366	-0.144348	-0.181885
-0.0354004	-0.144043	-0.179443
-0.0344849	-0.143738	-0.178223
-0.0332642	-0.143127	-0.176392
-0.0311279	-0.143127	-0.174255
-0.027771	-0.144043	-0.171814
-0.0228882	-0.144958	-0.167847
-0.0180054	-0.146179	-0.164185
-0.0137329	-0.147095	-0.160828
-0.0115967	-0.14679	-0.158386
-0.0115967	-0.145264	-0.15686
-0.0137329	-0.142517	-0.15625
-0.015564	-0.140076	-0.15564
-0.0180054	-0.137939	-0.155945
-0.0204468	-0.135803	-0.15625
-0.0234985	-0.133667	-0.157166
-0.0268555	-0.131226	-0.158081
-0.0302124	-0.128174	-0.158386
-0.032959	-0.125732	-0.158691
-0.0341797	-0.123596	-0.157776
-0.0332642	-0.121765	-0.155029
-0.0314331	-0.119934	-0.151367
-0.0296021	-0.117493	-0.147095
-0.0280762	-0.114746	-0.142822
-0.0265503	-0.112	-0.13855
-0.0253296	-0.109863	-0.135193
-0.0253296	-0.108643	-0.133972
-0.0250244	-0.107727	-0.132751
-0.0241089	-0.107422	-0.131531
-0.0219727	-0.108337	-0.13031
-0.0186157	-0.111084	-0.1297
-0.0143433	-0.115051	-0.129395
-0.0100708	-0.119019	-0.129089
-0.00549316	-0.122375	-0.127869
0	-0.125732	-0.125732
0.00579834	-0.129395	-0.123596
0.010376	-0.132141	-0.121765
0.0134277	-0.133362	-0.119934
0.0152588	-0.132751	-0.117493
0.0164795	-0.130615	-0.114136
0.0164795	-0.127869	-0.111389
0.0149536	-0.124512	-0.109558
0.0131226	-0.12207	-0.108948
0.0119019	-0.120544	-0.108643
0.012207	-0.119324	-0.107117
0.0134277	-0.118713	-0.105286
0.0146484	-0.118103	-0.103455
0.0152588	-0.117493	-0.102234
0.0149536	-0.117188	-0.102234
0.0137329	-0.116577	-0.102844
0.0125122	-0.115967	-0.103455
0.0112915	-0.115356	-0.104065
0.0109863	-0.114136	-0.103149
0.0112915	-0.112305	-0.101013
0.0106812	-0.109863	-0.0991821
0.00976563	-0.107117	-0.0973511
0.00915527	-0.10437	-0.0952148
0.00915527	-0.101929	-0.0927734
0.010376	-0.100708	-0.090332
0.0119019	-0.101318	-0.0894165
0.0134277	-0.102234	-0.0888062
0.0149536	-0.103149	-0.0881958
0.0177002	-0.10437	-0.0866699
0.020752	-0.106812	-0.0860596
0.0238037	-0.109863	-0.0860596
0.0265503	-0.112305	-0.0857544
0.0292969	-0.114441	-0.085144
0.0335693	-0.116882	-0.083313
0.0387573	-0.119324	-0.0805664
0.0421143	-0.120239	-0.078125
0.0436401	-0.119629	-0.0759888
0.0445557	-0.118408	-0.0738525
0.0460815	-0.118408	-0.0723267
0.0491333	-0.119934	-0.0708008
0.0521851	-0.122986	-0.0708008
0.0546265	-0.126038	-0.0714111
0.057373	-0.129089	-0.0717163
0.0610352	-0.132446	-0.0714111
0.065918	-0.136108	-0.0701904
0.071106	-0.13916	-0.0680542
0.0753784	-0.140686	-0.0653076
0.0787354	-0.140686	-0.0619507
0.0805664	-0.13916	-0.0585938
0.0817871	-0.137329	-0.055542
0.0823975	-0.134888	-0.0524902
0.0814819	-0.131226	-0.0497437
0.0778198	-0.126953	-0.0491333
0.0732422	-0.122375	-0.0491333
0.0680542	-0.117798	-0.0497437
0.062561	-0.11322	-0.0506592
0.0576782	-0.109558	-0.0518799
0.0521851	-0.106506	-0.0543213
0.0454712	-0.103455	-0.0579834
0.0390625	-0.100098	-0.0610352
0.0326538	-0.0967407	-0.0640869
0.0253296	-0.0924683	-0.0671387
0.0180054	-0.0875854	-0.0695801
0.0115967	-0.083313	-0.0717163
0.00640869	-0.0802612	-0.0738525
0.00213623	-0.078125	-0.0759888
-0.0012207	-0.0769043	-0.078125
-0.00457764	-0.0769043	-0.0814819
-0.00793457	-0.0759888	-0.0839233
-0.0119019	-0.0747681	-0.0866699
-0.0158691	-0.0732422	-0.0891113
-0.0192261	-0.0726318	-0.0918579
-0.0222778	-0.0723267	-0.0946045
-0.0259399	-0.0720215	-0.0979614
-0.0299072	-0.0717163	-0.101624
-0.0335693	-0.0723267	-0.105896
-0.0369263	-0.0738525	-0.110779
-0.0396729	-0.0759888	-0.115662
-0.0424194	-0.0772095	-0.119629
-0.0469971	-0.0765991	-0.123596
-0.0524902	-0.0747681	-0.127258
-0.0582886	-0.0726318	-0.13092
-0.0640869	-0.0704956	-0.134583
-0.0698853	-0.0680542	-0.137939
-0.0750732	-0.0653076	-0.140381
-0.0778198	-0.0628662	-0.140686
-0.0787354	-0.06073	-0.139465
-0.0784302	-0.0585938	-0.137024
-0.0778198	-0.0564575	-0.134277
-0.0769043	-0.0546265	-0.131531
-0.0744629	-0.055542	-0.130005
-0.0701904	-0.0592041	-0.129395
-0.0637817	-0.0637817	-0.127563
-0.0567627	-0.0683594	-0.125122
-0.0494385	-0.0726318	-0.12207
-0.0442505	-0.0756836	-0.119934
-0.0418091	-0.0772095	-0.119019
-0.0402832	-0.0784302	-0.118713
-0.038147	-0.0802612	-0.118408
-0.0357056	-0.0811768	-0.116882
-0.032959	-0.0811768	-0.114136
-0.0320435	-0.0790405	-0.111084
-0.0338745	-0.0753784	-0.109253
-0.0378418	-0.0701904	-0.108032
-0.0415039	-0.0656128	-0.107117
-0.0436401	-0.0628662	-0.106506
-0.0445557	-0.0619507	-0.106506
-0.0448608	-0.0619507	-0.106812
-0.045166	-0.0619507	-0.107117
-0.045166	-0.062561	-0.107727
-0.0448608	-0.0634766	-0.108337
-0.0442505	-0.0640869	-0.108337
-0.0436401	-0.0646973	-0.108337
-0.0430298	-0.0646973	-0.107727
-0.043335	-0.0637817	-0.107117
-0.0445557	-0.0616455	-0.106201
-0.0460815	-0.0588989	-0.10498
-0.0476074	-0.0558472	-0.103455
-0.0491333	-0.0524902	-0.101624
-0.0494385	-0.0497437	-0.0991821
-0.0488281	-0.0479126	-0.0967407
-0.0463867	-0.0476074	-0.0939941
-0.0421143	-0.0485229	-0.0906372
-0.0369263	-0.050354	-0.0872803
-0.0326538	-0.0518799	-0.0845337
-0.0302124	-0.0524902	-0.0827026
-0.0292969	-0.0521851	-0.0814819
-0.0289917	-0.0515747	-0.0805664
-0.0286865	-0.0509644	-0.0796509
-0.0292969	-0.0491333	-0.0784302
-0.0302124	-0.0479126	-0.078125
-0.0323486	-0.0466919	-0.0790405
-0.03479	-0.0457764	-0.0805664
-0.0366211	-0.0454712	-0.0820923
-0.0375366	-0.0463867	-0.0839233
-0.0378418	-0.0476074	-0.0854492
-0.0372314	-0.0491333	-0.0863647
-0.0360107	-0.0512695	-0.0872803
-0.0350952	-0.0531006	-0.0881958
-0.0350952	-0.0540161	-0.0891113
-0.0357056	-0.0546265	-0.090332
-0.0366211	-0.0543213	-0.0909424
-0.0375366	-0.0540161	-0.0915527
-0.0378418	-0.0540161	-0.0918579
-0.0366211	-0.0534058	-0.0900269
-0.03479	-0.0521851	-0.0869751
-0.0332642	-0.0509644	-0.0842285
-0.0326538	-0.0506592	-0.083313
-0.032959	-0.050354	-0.083313
-0.0332642	-0.050354	-0.0836182
-0.0332642	-0.050354	-0.0836182
-0.0335693	-0.050354	-0.0839233
-0.03479	-0.0494385	-0.0842285
-0.0369263	-0.0482178	-0.085144
-0.0390625	-0.0476074	-0.0866699
-0.0411987	-0.0476074	-0.0888062
-0.0427246	-0.0482178	-0.0909424
-0.0427246	-0.0500488	-0.0927734
-0.0408936	-0.0518799	-0.0927734
-0.0375366	-0.0540161	-0.0915527
-0.0341797	-0.0558472	-0.0900269
-0.0320435	-0.0567627	-0.0888062
-0.0314331	-0.057373	-0.0888062
-0.0320435	-0.057373	-0.0894165
-0.032959	-0.0567627	-0.0897217
-0.0341797	-0.0552368	-0.0894165
-0.0360107	-0.0527954	-0.0888062
-0.0384521	-0.0500488	-0.088501
-0.0411987	-0.0476074	-0.0888062
-0.0448608	-0.045166	-0.0900269
-0.0466919	-0.0430298	-0.0897217
-0.0457764	-0.0421143	-0.0878906
-0.043335	-0.0424194	-0.0857544
-0.0405884	-0.0436401	-0.0842285
-0.038147	-0.0454712	-0.0836182
-0.0360107	-0.0473022	-0.083313
-0.0341797	-0.0485229	-0.0827026
-0.0332642	-0.0491333	-0.0823975
-0.0332642	-0.0497437	-0.0830078
-0.0338745	-0.0506592	-0.0845337
-0.0341797	-0.0518799	-0.0860596
-0.0354004	-0.0527954	-0.0881958
-0.0369263	-0.0534058	-0.090332
-0.0384521	-0.0537109	-0.0921631
-0.0390625	-0.0537109	-0.0927734
-0.0390625	-0.0543213	-0.0933838
-0.0369263	-0.0558472	-0.0927734
-0.0335693	-0.0582886	-0.0918579
-0.0308228	-0.0604248	-0.0912476
-0.0299072	-0.0613403	-0.0912476
-0.0299072	-0.0610352	-0.0909424
-0.0296021	-0.0604248	-0.0900269
-0.0299072	-0.0595093	-0.0894165
-0.0299072	-0.0588989	-0.0888062
-0.0299072	-0.0579834	-0.0878906
-0.0296021	-0.0564575	-0.0860596
-0.0289917	-0.0534058	-0.0823975
-0.0283813	-0.0485229	-0.0769043
-0.0280762	-0.0418091	-0.0698853
-0.0280762	-0.0335693	-0.0616455
-0.0271606	-0.0247192	-0.0518799
-0.0256348	-0.0149536	-0.0405884
-0.0244141	-0.00396729	-0.0283813
-0.0234985	0.00762939	-0.0158691
-0.0234985	0.0183105	-0.00518799
-0.0241089	0.0268555	0.00274658
-0.0253296	0.032959	0.00762939
-0.0265503	0.0378418	0.0112915
-0.0271606	0.0427246	0.015564
-0.0283813	0.0479126	0.0195313
-0.0305176	0.0546265	0.0241089
-0.0332642	0.0634766	0.0302124
-0.0360107	0.0738525	0.0378418
-0.0378418	0.0857544	0.0479126
-0.0375366	0.0976563	0.0601196
-0.0357056	0.109253	0.0735474
-0.0326538	0.121155	0.088501
-0.0302124	0.133667	0.103455
-0.0271606	0.144958	0.117798
-0.0234985	0.152588	0.129089
-0.0204468	0.15625	0.135803
-0.0180054	0.155945	0.137939
-0.015564	0.151672	0.136108
-0.0119019	0.143127	0.131226
-0.00823975	0.131836	0.123596
-0.00671387	0.118713	0.112
-0.00854492	0.10498	0.0964355
-0.012207	0.0900269	0.0778198
-0.0152588	0.0723267	0.0570679
-0.0170898	0.0518799	0.03479
-0.0180054	0.0302124	0.012207
-0.0201416	0.00976563	-0.010376
-0.0238037	-0.00793457	-0.0317383
-0.0280762	-0.0241089	-0.0521851
-0.0320435	-0.0393677	-0.0714111
-0.0360107	-0.0527954	-0.0888062
-0.0390625	-0.0640869	-0.103149
-0.0387573	-0.0744629	-0.11322
-0.0357056	-0.0839233	-0.119629
-0.0317383	-0.0918579	-0.123596
-0.0280762	-0.0979614	-0.126038
-0.0250244	-0.101929	-0.126953
-0.0219727	-0.104675	-0.126648
-0.0198364	-0.106201	-0.126038
-0.0177002	-0.105896	-0.123596
-0.0152588	-0.10437	-0.119629
-0.0143433	-0.101624	-0.115967
-0.0149536	-0.0991821	-0.114136
-0.0149536	-0.100098	-0.115051
-0.0140381	-0.10376	-0.117798
-0.0112915	-0.112	-0.123291
-0.00549316	-0.125122	-0.130615
0.00152588	-0.140991	-0.139465
0.00854492	-0.155945	-0.1474
0.0152588	-0.166626	-0.151367
0.0216675	-0.170898	-0.149231
0.027771	-0.166016	-0.138245
0.0341797	-0.148621	-0.114441
0.039978	-0.115967	-0.0759888
0.0454712	-0.0668335	-0.0213623
0.0512695	-0.00183105	0.0494385
0.0570679	0.0793457	0.136414
0.0619507	0.176697	0.238647
0.0668335	0.287476	0.354309
0.0741577	0.402527	0.476685
0.0857544	0.512695	0.59845
0.100403	0.611572	0.711975
0.115356	0.69519	0.810547
0.128479	0.757751	0.88623
0.140381	0.792542	0.932922
0.148621	0.794983	0.943604
0.149536	0.765686	0.915222
0.140381	0.706787	0.847168
0.122986	0.621338	0.744324
0.100403	0.513611	0.614014
0.0744629	0.392151	0.466614
0.0460815	0.267334	0.313416
0.0170898	0.148315	0.165405
-0.010376	0.0418091	0.0314331
-0.0332642	-0.0466919	-0.0799561
-0.0494385	-0.114441	-0.163879
-0.0576782	-0.159912	-0.21759
-0.0579834	-0.184631	-0.242615
-0.0515747	-0.191956	-0.24353
-0.0405884	-0.186462	-0.227051
-0.0289917	-0.172424	-0.201416
-0.0186157	-0.154114	-0.172729
-0.0112915	-0.136108	-0.1474
-0.00762939	-0.12085	-0.128479
-0.00640869	-0.110168	-0.116577
-0.00732422	-0.104065	-0.111389
-0.0088501	-0.102844	-0.111694
-0.0106812	-0.10498	-0.115662
-0.0106812	-0.110474	-0.121155
-0.00976563	-0.117188	-0.126953
-0.00732422	-0.124207	-0.131531
-0.00427246	-0.1297	-0.133972
-0.000610352	-0.133972	-0.134583
0.00335693	-0.137329	-0.133972
0.00671387	-0.138855	-0.132141
0.00915527	-0.13855	-0.129395
0.00976563	-0.136719	-0.126953
0.00915527	-0.134888	-0.125732
0.0088501	-0.133667	-0.124817
0.00946045	-0.133057	-0.123596
0.0088501	-0.132141	-0.123291
0.00701904	-0.130615	-0.123596
0.00579834	-0.129395	-0.123596
0.00457764	-0.127869	-0.123291
0.00396729	-0.126038	-0.12207
0.00518799	-0.124817	-0.119629
0.00854492	-0.125122	-0.116577
0.0125122	-0.125427	-0.112915
0.015564	-0.124817	-0.109253
0.017395	-0.123291	-0.105896
0.0183105	-0.12146	-0.103149
0.0186157	-0.118713	-0.100098
0.0180054	-0.115662	-0.0976563
0.0170898	-0.113525	-0.0964355
0.0161743	-0.112305	-0.0961304
0.0146484	-0.112	-0.0973511
0.0131226	-0.112	-0.098877
0.0119019	-0.112	-0.100098
0.0109863	-0.111694	-0.100708
0.010376	-0.111389	-0.101013
0.0115967	-0.112305	-0.100708
0.0149536	-0.113831	-0.098877
0.0195313	-0.115662	-0.0961304
0.0247192	-0.117188	-0.0924683
0.0292969	-0.118103	-0.0888062
0.0323486	-0.116882	-0.0845337
0.0332642	-0.114441	-0.0811768
0.0326538	-0.111694	-0.0790405
0.0317383	-0.109558	-0.0778198
0.0311279	-0.108948	-0.0778198
0.0305176	-0.108643	-0.078125
0.0305176	-0.109253	-0.0787354
0.0305176	-0.109863	-0.0793457
0.0305176	-0.109863	-0.0793457
0.0302124	-0.108948	-0.0787354
0.0311279	-0.108948	-0.0778198
0.0341797	-0.110168	-0.0759888
0.0369263	-0.110474	-0.0735474
0.0378418	-0.108643	-0.0708008
0.0387573	-0.105591	-0.0668335
0.0396729	-0.102234	-0.062561
0.0390625	-0.0976563	-0.0585938
0.0375366	-0.0930786	-0.055542
0.0375366	-0.0906372	-0.0531006
0.0393677	-0.0900269	-0.0506592
0.0415039	-0.0894165	-0.0479126
0.0439453	-0.0894165	-0.0454712
0.0469971	-0.0894165	-0.0424194
0.0491333	-0.0900269	-0.0408936
0.0497437	-0.090332	-0.0405884
0.0521851	-0.0915527	-0.0393677
0.0558472	-0.0933838	-0.0375366
0.0585938	-0.0949097	-0.0363159
0.0598145	-0.09552	-0.0357056
0.0613403	-0.0958252	-0.0344849
0.0640869	-0.0967407	-0.0326538
0.0689697	-0.0985718	-0.0296021
0.0753784	-0.100708	-0.0253296
0.0811768	-0.102844	-0.0216675
0.085144	-0.104065	-0.0189209
0.0891113	-0.105286	-0.0161743
0.0921631	-0.106812	-0.0146484
0.0942993	-0.107727	-0.0134277
0.0946045	-0.107422	-0.0128174
0.0930786	-0.105896	-0.0128174
0.0894165	-0.102844	-0.0134277
0.0848389	-0.098877	-0.0140381
0.0799561	-0.0942993	-0.0143433
0.078125	-0.0915527	-0.0134277
0.0802612	-0.0921631	-0.0119019
0.0848389	-0.0939941	-0.00915527
0.0900269	-0.09552	-0.00549316
0.0961304	-0.0970459	-0.000915527
0.102844	-0.100403	0.00244141
0.109253	-0.10437	0.00488281
0.114441	-0.108948	0.00549316
0.117798	-0.112915	0.00488281
0.119019	-0.114746	0.00427246
0.118103	-0.114441	0.00366211
0.115356	-0.112915	0.00244141
0.111694	-0.110474	0.0012207
0.107117	-0.106506	0.000610352
0.104065	-0.102844	0.0012207
0.104065	-0.100403	0.00366211
0.106201	-0.0997925	0.00640869
0.108948	-0.100098	0.0088501
0.111694	-0.100708	0.0109863
0.115051	-0.101624	0.0134277
0.117798	-0.101929	0.0158691
0.119019	-0.101929	0.0170898
0.117188	-0.101013	0.0161743
0.111084	-0.0979614	0.0131226
0.101624	-0.0930786	0.00854492
0.0915527	-0.0875854	0.00396729
0.0814819	-0.0808716	0.000610352
0.0708008	-0.0726318	-0.00183105
0.0601196	-0.0637817	-0.00366211
0.0497437	-0.0549316	-0.00518799
0.0408936	-0.0460815	-0.00518799
0.0341797	-0.0387573	-0.00457764
0.0299072	-0.0341797	-0.00427246
0.027771	-0.0323486	-0.00457764
0.0262451	-0.0317383	-0.00549316
0.0247192	-0.0317383	-0.00701904
0.0234985	-0.032959	-0.00946045
0.0228882	-0.0344849	-0.0115967
0.0216675	-0.0372314	-0.015564
0.0192261	-0.0402832	-0.0210571
0.0152588	-0.0436401	-0.0283813
0.0112915	-0.0466919	-0.0354004
0.00732422	-0.0488281	-0.0415039
0.00244141	-0.0497437	-0.0473022
-0.00213623	-0.0491333	-0.0512695
-0.00671387	-0.0476074	-0.0543213
-0.0100708	-0.0457764	-0.0558472
-0.012207	-0.0430298	-0.0552368
-0.0143433	-0.0402832	-0.0546265
-0.017395	-0.0366211	-0.0540161
-0.0210571	-0.0326538	-0.0537109
-0.0231934	-0.0296021	-0.0527954
-0.0231934	-0.0283813	-0.0515747
-0.0219727	-0.0286865	-0.0506592
-0.0204468	-0.0292969	-0.0497437
-0.0189209	-0.0302124	-0.0491333
-0.017395	-0.0320435	-0.0494385
-0.0161743	-0.0335693	-0.0497437
-0.015564	-0.0341797	-0.0497437
-0.0143433	-0.03479	-0.0491333
-0.0131226	-0.03479	-0.0479126
-0.012207	-0.0338745	-0.0460815
-0.0112915	-0.032959	-0.0442505
-0.00946045	-0.032959	-0.0424194
-0.00671387	-0.0332642	-0.039978
-0.00427246	-0.0338745	-0.038147
-0.00335693	-0.0335693	-0.0369263
-0.00427246	-0.0326538	-0.0369263
-0.00549316	-0.0317383	-0.0372314
-0.00610352	-0.0317383	-0.0378418
-0.00518799	-0.0326538	-0.0378418
-0.00244141	-0.0341797	-0.0366211
0.00152588	-0.0354004	-0.0338745
0.00518799	-0.0360107	-0.0308228
0.00762939	-0.0357056	-0.0280762
0.00854492	-0.0350952	-0.0265503
0.00946045	-0.03479	-0.0253296
0.00976563	-0.03479	-0.0250244
0.0100708	-0.0341797	-0.0241089
0.0109863	-0.0338745	-0.0228882
0.0115967	-0.0338745	-0.0222778
0.0088501	-0.032959	-0.0241089
0.00396729	-0.0314331	-0.0274658
-0.000610352	-0.0302124	-0.0308228
-0.00396729	-0.0289917	-0.032959
-0.00640869	-0.0274658	-0.0338745
-0.00701904	-0.0265503	-0.0335693
-0.00579834	-0.0262451	-0.0320435
-0.00305176	-0.0265503	-0.0296021
0.000610352	-0.0274658	-0.0268555
0.00488281	-0.0289917	-0.0241089
0.00946045	-0.0299072	-0.0204468
0.0128174	-0.0296021	-0.0167847
0.0149536	-0.0286865	-0.0137329
0.0167847	-0.0271606	-0.010376
0.0170898	-0.0253296	-0.00823975
0.0158691	-0.0238037	-0.00793457
0.0134277	-0.0222778	-0.0088501
0.00946045	-0.0198364	-0.010376
0.00488281	-0.017395	-0.0125122
0.0012207	-0.0152588	-0.0140381
-0.00213623	-0.0125122	-0.0146484
-0.00579834	-0.0100708	-0.0158691
-0.0088501	-0.00793457	-0.0167847
-0.0106812	-0.00671387	-0.017395
-0.010376	-0.00701904	-0.017395
-0.00915527	-0.00823975	-0.017395
-0.00701904	-0.00976563	-0.0167847
-0.00457764	-0.0112915	-0.0158691
-0.00183105	-0.0128174	-0.0146484
0.000915527	-0.0140381	-0.0131226
0.00305176	-0.0146484	-0.0115967
0.00610352	-0.0164795	-0.010376
0.010376	-0.0201416	-0.00976563
0.0146484	-0.0231934	-0.00854492
0.0167847	-0.0241089	-0.00732422
0.017395	-0.0238037	-0.00640869
0.0170898	-0.022583	-0.00549316
0.0167847	-0.0210571	-0.00427246
0.0170898	-0.020752	-0.00366211
0.0167847	-0.020752	-0.00396729
0.0152588	-0.0198364	-0.00457764
0.0128174	-0.0186157	-0.00579834
0.0100708	-0.017395	-0.00732422
0.00762939	-0.0170898	-0.00946045
0.00671387	-0.0177002	-0.0109863
0.00732422	-0.0195313	-0.012207
0.00915527	-0.0222778	-0.0131226
0.0112915	-0.0256348	-0.0143433
